10.000 16.698
10.014 13.621
10.028 17.682
10.041 18.099
10.055 11.500
10.069 12.962
10.083 16.203
10.096 15.176
10.110 15.842
10.124 13.923
10.138 17.852
10.151 17.606
10.165 15.970
10.179 18.371
10.193 16.853
10.206 13.817
10.220 16.598
10.234 13.560
10.248 17.728
10.261 15.599
10.275 15.277
10.289 14.132
10.303 18.451
10.316 15.301
10.330 14.662
10.344 14.821
10.358 16.819
10.371 16.424
10.385 16.517
10.399 16.543
10.413 20.424
10.426 14.607
10.440 14.352
10.454 13.650
10.468 16.891
10.481 18.044
10.495 15.199
10.509 13.531
10.523 13.552
10.536 16.896
10.550 17.092
10.564 16.622
10.578 13.855
10.591 15.884
10.605 15.607
10.619 15.824
10.633 17.296
10.646 15.806
10.660 16.828
10.674 15.422
10.688 15.912
10.701 16.676
10.715 11.907
10.729 14.482
10.743 14.125
10.756 13.727
10.770 14.541
10.784 18.556
10.798 13.167
10.811 17.329
10.825 11.278
10.839 14.333
10.853 15.452
10.866 16.402
10.880 16.672
10.894 16.845
10.908 14.230
10.921 13.958
10.935 16.950
10.949 14.546
10.963 12.063
10.976 12.373
10.990 12.846
11.004 16.058
11.018 15.236
11.032 16.470
11.045 13.911
11.059 15.231
11.073 16.280
11.087 14.138
11.100 15.868
11.114 13.307
11.128 13.974
11.142 13.917
11.155 12.050
11.169 15.868
11.183 13.676
11.197 14.760
11.210 15.812
11.224 15.720
11.238 16.205
11.252 14.452
11.265 13.699
11.279 14.468
11.293 10.794
11.307 11.327
11.320 11.597
11.334 12.324
11.348 15.491
11.362 12.506
11.375 13.693
11.389 17.499
11.403 13.716
11.417 16.193
11.430 12.375
11.444 14.019
11.458 12.310
11.472 13.688
11.485 16.360
11.499 10.501
11.513 15.409
11.527 14.948
11.540 13.041
11.554 11.088
11.568 14.531
11.582 13.148
11.595 14.870
11.609 14.377
11.623 17.961
11.637 13.756
11.650 11.958
11.664 14.683
11.678 14.763
11.692 17.343
11.705 16.137
11.719 15.035
11.733 17.541
11.747 11.490
11.760 12.727
11.774 12.061
11.788 13.270
11.802 11.010
11.815 15.578
11.829 13.613
11.843 10.757
11.857 11.781
11.870 14.794
11.884 15.976
11.898 18.601
11.912 20.676
11.925 14.973
11.939 11.763
11.953 9.149
11.967 14.601
11.980 12.127
11.994 13.020
12.008 12.559
12.022 13.620
12.036 16.355
12.049 14.273
12.063 13.541
12.077 11.532
12.091 10.065
12.104 12.758
12.118 13.730
12.132 17.865
12.146 14.124
12.159 16.053
12.173 12.666
12.187 11.092
12.201 11.580
12.214 12.114
12.228 18.599
12.242 11.871
12.256 15.637
12.269 11.660
12.283 15.825
12.297 14.568
12.311 13.323
12.324 13.574
12.338 12.164
12.352 14.658
12.366 12.595
12.379 10.828
12.393 10.697
12.407 13.987
12.421 17.177
12.434 13.934
12.448 13.288
12.462 14.196
12.476 16.507
12.489 14.021
12.503 12.574
12.517 16.016
12.531 14.462
12.544 16.970
12.558 13.879
12.572 10.662
12.586 10.323
12.599 17.185
12.613 17.339
12.627 12.994
12.641 12.518
12.654 16.706
12.668 10.846
12.682 11.318
12.696 14.808
12.709 12.433
12.723 13.308
12.737 12.936
12.751 14.065
12.764 16.489
12.778 13.479
12.792 14.728
12.806 8.582
12.819 13.127
12.833 11.307
12.847 10.440
12.861 11.204
12.874 12.431
12.888 15.266
12.902 10.149
12.916 13.227
12.929 12.043
12.943 12.388
12.957 15.406
12.971 14.337
12.984 16.145
12.998 12.737
13.012 11.493
13.026 12.556
13.040 13.607
13.053 13.445
13.067 10.563
13.081 13.227
13.095 13.529
13.108 18.730
13.122 17.260
13.136 11.033
13.150 12.310
13.163 9.621
13.177 11.597
13.191 13.650
13.205 15.665
13.218 11.249
13.232 11.408
13.246 7.998
13.260 12.505
13.273 10.445
13.287 11.648
13.301 10.846
13.315 12.617
13.328 8.818
13.342 9.469
13.356 17.646
13.370 9.856
13.383 10.279
13.397 16.948
13.411 19.369
13.425 10.076
13.438 11.894
13.452 13.500
13.466 16.647
13.480 10.454
13.493 12.131
13.507 14.449
13.521 13.658
13.535 11.801
13.548 12.342
13.562 9.505
13.576 12.083
13.590 12.008
13.603 13.132
13.617 11.329
13.631 13.656
13.645 14.878
13.658 12.915
13.672 13.352
13.686 12.661
13.700 12.530
13.713 10.876
13.727 13.229
13.741 12.276
13.755 17.253
13.768 16.059
13.782 13.345
13.796 10.719
13.810 9.913
13.823 15.147
13.837 13.023
13.851 13.508
13.865 8.432
13.878 14.505
13.892 13.418
13.906 9.845
13.920 11.289
13.933 12.953
13.947 12.462
13.961 11.667
13.975 12.086
13.988 11.738
14.002 12.649
14.016 15.641
14.030 6.437
14.044 11.732
14.057 12.663
14.071 12.924
14.085 11.394
14.099 8.231
14.112 12.967
14.126 16.143
14.140 8.708
14.154 14.157
14.167 11.432
14.181 12.030
14.195 9.763
14.209 11.389
14.222 15.100
14.236 13.457
14.250 16.064
14.264 14.791
14.277 13.100
14.291 16.061
14.305 13.080
14.319 13.956
14.332 11.386
14.346 12.203
14.360 10.453
14.374 14.285
14.387 9.339
14.401 13.793
14.415 11.568
14.429 14.659
14.442 13.692
14.456 16.118
14.470 13.627
14.484 8.375
14.497 11.792
14.511 9.266
14.525 10.745
14.539 15.356
14.552 13.357
14.566 10.305
14.580 9.579
14.594 11.952
14.607 9.098
14.621 10.330
14.635 12.559
14.649 14.470
14.662 13.216
14.676 6.603
14.690 12.504
14.704 11.965
14.717 12.734
14.731 15.462
14.745 7.076
14.759 10.418
14.772 13.100
14.786 8.144
14.800 15.096
14.814 12.565
14.827 13.645
14.841 10.408
14.855 13.552
14.869 14.122
14.882 12.211
14.896 12.205
14.910 12.277
14.924 9.687
14.937 11.308
14.951 11.287
14.965 12.498
14.979 13.893
14.992 9.197
15.006 11.313
15.020 14.962
15.034 9.887
15.048 9.699
15.061 12.022
15.075 13.475
15.089 11.570
15.103 14.561
15.116 13.477
15.130 13.434
15.144 12.770
15.158 16.799
15.171 11.023
15.185 6.920
15.199 15.125
15.213 10.422
15.226 11.700
15.240 14.428
15.254 7.789
15.268 8.579
15.281 7.774
15.295 9.603
15.309 12.403
15.323 12.587
15.336 12.014
15.350 8.159
15.364 6.108
15.378 11.482
15.391 10.276
15.405 12.387
15.419 12.931
15.433 11.639
15.446 13.046
15.460 11.829
15.474 12.505
15.488 9.685
15.501 10.872
15.515 11.721
15.529 13.133
15.543 10.359
15.556 12.434
15.570 10.634
15.584 10.963
15.598 13.111
15.611 6.676
15.625 8.254
15.639 7.822
15.653 5.875
15.666 9.636
15.680 12.878
15.694 10.515
15.708 11.606
15.721 13.627
15.735 14.162
15.749 10.973
15.763 14.204
15.776 11.324
15.790 9.199
15.804 9.744
15.818 7.719
15.831 9.059
15.845 10.258
15.859 12.895
15.873 14.975
15.886 7.902
15.900 11.935
15.914 8.664
15.928 12.106
15.941 10.718
15.955 6.840
15.969 13.114
15.983 9.615
15.996 9.769
16.010 8.541
16.024 9.479
16.038 11.935
16.052 10.522
16.065 11.694
16.079 11.762
16.093 13.937
16.107 10.142
16.120 7.552
16.134 13.336
16.148 10.144
16.162 13.429
16.175 11.756
16.189 10.577
16.203 11.662
16.217 15.302
16.230 15.581
16.244 11.003
16.258 11.202
16.272 13.280
16.285 8.896
16.299 11.573
16.313 10.748
16.327 11.514
16.340 8.894
16.354 7.165
16.368 6.057
16.382 8.225
16.395 9.717
16.409 10.087
16.423 15.158
16.437 13.258
16.450 8.542
16.464 11.516
16.478 9.790
16.492 10.063
16.505 11.125
16.519 12.105
16.533 9.916
16.547 13.103
16.560 8.074
16.574 10.681
16.588 16.574
16.602 11.160
16.615 13.908
16.629 10.846
16.643 11.953
16.657 10.494
16.670 10.228
16.684 8.835
16.698 11.582
16.712 8.656
16.725 12.104
16.739 13.052
16.753 11.409
16.767 9.916
16.780 11.594
16.794 9.851
16.808 12.677
16.822 6.370
16.835 9.769
16.849 5.993
16.863 7.115
16.877 13.618
16.890 12.544
16.904 8.861
16.918 7.071
16.932 3.736
16.945 9.242
16.959 15.983
16.973 11.456
16.987 9.185
17.001 11.511
17.014 6.892
17.028 9.762
17.042 10.659
17.056 10.230
17.069 12.220
17.083 11.198
17.097 11.929
17.111 8.833
17.124 12.438
17.138 14.097
17.152 8.173
17.166 8.354
17.179 13.410
17.193 9.927
17.207 13.553
17.221 9.343
17.234 13.657
17.248 10.637
17.262 10.920
17.276 13.888
17.289 9.496
17.303 8.171
17.317 9.286
17.331 11.332
17.344 6.731
17.358 11.741
17.372 9.057
17.386 12.892
17.399 4.821
17.413 8.476
17.427 6.421
17.441 8.374
17.454 10.813
17.468 9.836
17.482 9.661
17.496 9.870
17.509 10.690
17.523 7.925
17.537 11.825
17.551 11.719
17.564 11.081
17.578 11.467
17.592 10.869
17.606 14.822
17.619 9.985
17.633 9.479
17.647 8.457
17.661 7.817
17.674 7.329
17.688 8.134
17.702 9.991
17.716 10.908
17.729 10.259
17.743 8.394
17.757 12.182
17.771 11.811
17.784 9.759
17.798 8.631
17.812 11.362
17.826 10.537
17.839 6.807
17.853 9.945
17.867 10.691
17.881 8.042
17.894 10.518
17.908 6.769
17.922 13.119
17.936 12.914
17.949 9.494
17.963 10.892
17.977 4.573
17.991 7.423
18.005 9.383
18.018 7.607
18.032 11.671
18.046 14.588
18.060 7.358
18.073 8.126
18.087 10.565
18.101 13.694
18.115 7.239
18.128 10.586
18.142 14.162
18.156 6.251
18.170 7.092
18.183 9.041
18.197 8.818
18.211 11.850
18.225 10.547
18.238 5.953
18.252 11.165
18.266 8.674
18.280 12.888
18.293 8.555
18.307 8.532
18.321 11.211
18.335 11.714
18.348 10.995
18.362 6.135
18.376 11.196
18.390 7.614
18.403 10.503
18.417 6.725
18.431 10.981
18.445 8.127
18.458 7.042
18.472 11.587
18.486 10.511
18.500 8.562
18.513 13.263
18.527 8.955
18.541 10.031
18.555 10.570
18.568 8.547
18.582 11.031
18.596 8.744
18.610 9.022
18.623 13.062
18.637 7.592
18.651 4.468
18.665 13.631
18.678 15.769
18.692 9.044
18.706 5.558
18.720 9.263
18.733 9.321
18.747 9.543
18.761 7.443
18.775 11.301
18.788 11.179
18.802 6.586
18.816 11.584
18.830 14.670
18.843 10.393
18.857 9.238
18.871 9.688
18.885 11.418
18.898 6.083
18.912 10.404
18.926 9.147
18.940 14.251
18.953 9.655
18.967 13.857
18.981 7.555
18.995 11.414
19.009 10.814
19.022 8.118
19.036 10.511
19.050 12.879
19.064 9.393
19.077 6.290
19.091 10.116
19.105 8.115
19.119 9.405
19.132 10.014
19.146 6.332
19.160 6.554
19.174 11.348
19.187 9.080
19.201 4.450
19.215 12.097
19.229 10.953
19.242 8.730
19.256 7.382
19.270 12.309
19.284 11.228
19.297 15.886
19.311 11.448
19.325 11.406
19.339 10.177
19.352 12.452
19.366 12.053
19.380 13.519
19.394 9.523
19.407 9.763
19.421 9.710
19.435 12.650
19.449 14.313
19.462 9.912
19.476 10.048
19.490 11.792
19.504 10.583
19.517 13.380
19.531 6.160
19.545 9.483
19.559 9.668
19.572 6.256
19.586 9.440
19.600 9.653
19.614 11.387
19.627 14.496
19.641 11.529
19.655 9.873
19.669 12.235
19.682 14.908
19.696 10.464
19.710 10.793
19.724 14.334
19.737 12.771
19.751 14.982
19.765 13.732
19.779 15.643
19.792 12.004
19.806 14.688
19.820 14.640
19.834 12.817
19.847 12.571
19.861 18.336
19.875 16.747
19.889 16.149
19.902 19.389
19.916 23.557
19.930 17.481
19.944 21.320
19.957 25.114
19.971 33.535
19.985 34.415
19.999 39.714
20.013 40.243
20.026 45.865
20.040 55.708
20.054 61.759
20.068 70.396
20.081 76.698
20.095 86.018
20.109 94.060
20.123 103.566
20.136 111.193
20.150 112.354
20.164 116.395
20.178 127.733
20.191 130.325
20.205 125.551
20.219 121.963
20.233 122.923
20.246 119.716
20.260 115.285
20.274 104.996
20.288 94.980
20.301 85.499
20.315 79.251
20.329 70.463
20.343 61.168
20.356 61.033
20.370 53.968
20.384 46.719
20.398 36.970
20.411 36.633
20.425 32.408
20.439 28.813
20.453 28.026
20.466 24.457
20.480 22.910
20.494 21.210
20.508 19.335
20.521 13.509
20.535 16.942
20.549 14.802
20.563 12.577
20.576 18.826
20.590 18.505
20.604 17.287
20.618 14.440
20.631 16.635
20.645 13.316
20.659 13.504
20.673 10.326
20.686 13.511
20.700 12.551
20.714 9.269
20.728 11.952
20.741 11.731
20.755 15.860
20.769 13.668
20.783 11.530
20.796 11.951
20.810 11.373
20.824 10.705
20.838 8.602
20.851 10.629
20.865 9.185
20.879 7.953
20.893 11.885
20.906 11.536
20.920 6.506
20.934 10.227
20.948 12.708
20.961 12.792
20.975 12.657
20.989 10.354
21.003 8.289
21.017 7.695
21.030 10.898
21.044 10.931
21.058 12.954
21.072 12.485
21.085 9.638
21.099 7.068
21.113 9.136
21.127 10.322
21.140 9.332
21.154 8.443
21.168 10.303
21.182 8.549
21.195 8.237
21.209 10.347
21.223 8.695
21.237 10.140
21.250 10.180
21.264 6.939
21.278 8.414
21.292 12.760
21.305 6.818
21.319 4.623
21.333 5.182
21.347 9.467
21.360 9.451
21.374 9.094
21.388 12.108
21.402 3.240
21.415 10.209
21.429 12.846
21.443 6.707
21.457 8.394
21.470 7.529
21.484 7.192
21.498 8.470
21.512 12.449
21.525 13.368
21.539 8.407
21.553 13.496
21.567 9.226
21.580 13.126
21.594 8.908
21.608 9.407
21.622 9.930
21.635 16.324
21.649 11.013
21.663 7.454
21.677 11.260
21.690 8.220
21.704 7.919
21.718 11.093
21.732 9.086
21.745 9.640
21.759 9.028
21.773 9.754
21.787 9.947
21.800 4.561
21.814 10.480
21.828 6.719
21.842 5.663
21.855 8.806
21.869 9.123
21.883 7.345
21.897 10.809
21.910 5.855
21.924 7.977
21.938 7.565
21.952 8.784
21.965 9.519
21.979 6.583
21.993 10.521
22.007 9.010
22.021 4.553
22.034 4.396
22.048 8.821
22.062 8.341
22.076 8.603
22.089 8.770
22.103 9.342
22.117 10.982
22.131 6.290
22.144 6.146
22.158 6.321
22.172 9.464
22.186 11.636
22.199 7.816
22.213 3.098
22.227 4.910
22.241 6.889
22.254 7.512
22.268 7.849
22.282 8.863
22.296 8.062
22.309 11.158
22.323 7.226
22.337 6.799
22.351 9.850
22.364 5.260
22.378 9.641
22.392 8.985
22.406 8.413
22.419 12.363
22.433 7.327
22.447 13.433
22.461 8.226
22.474 5.830
22.488 8.895
22.502 6.283
22.516 7.020
22.529 9.634
22.543 9.994
22.557 7.311
22.571 10.974
22.584 11.360
22.598 11.994
22.612 9.928
22.626 11.826
22.639 4.438
22.653 7.996
22.667 6.745
22.681 8.990
22.694 7.417
22.708 8.339
22.722 13.003
22.736 8.331
22.749 9.659
22.763 8.188
22.777 8.889
22.791 8.731
22.804 9.738
22.818 11.371
22.832 12.469
22.846 9.424
22.859 10.062
22.873 6.100
22.887 8.521
22.901 10.863
22.914 10.695
22.928 9.207
22.942 10.744
22.956 9.845
22.969 11.462
22.983 9.390
22.997 7.923
23.011 9.499
23.025 2.064
23.038 9.611
23.052 0.434
23.066 4.819
23.080 9.775
23.093 9.836
23.107 6.105
23.121 7.133
23.135 11.878
23.148 7.658
23.162 13.870
23.176 8.763
23.190 9.699
23.203 12.455
23.217 9.076
23.231 6.500
23.245 8.536
23.258 8.709
23.272 5.687
23.286 8.216
23.300 7.114
23.313 10.913
23.327 8.892
23.341 8.175
23.355 8.582
23.368 9.337
23.382 10.239
23.396 6.564
23.410 6.475
23.423 11.368
23.437 7.920
23.451 5.639
23.465 9.882
23.478 9.934
23.492 5.400
23.506 9.415
23.520 10.575
23.533 9.760
23.547 10.354
23.561 5.726
23.575 9.685
23.588 8.251
23.602 7.849
23.616 10.940
23.630 12.335
23.643 13.061
23.657 11.979
23.671 8.745
23.685 9.808
23.698 10.761
23.712 9.302
23.726 9.334
23.740 10.923
23.753 8.924
23.767 7.410
23.781 8.138
23.795 10.537
23.808 9.113
23.822 9.894
23.836 10.658
23.850 8.292
23.863 10.881
23.877 10.036
23.891 6.376
23.905 12.486
23.918 8.077
23.932 5.464
23.946 6.869
23.960 6.939
23.973 9.399
23.987 8.674
24.001 8.547
24.015 10.743
24.029 10.124
24.042 10.088
24.056 10.320
24.070 10.809
24.084 4.627
24.097 8.617
24.111 4.503
24.125 9.571
24.139 9.500
24.152 11.913
24.166 12.259
24.180 10.040
24.194 8.463
24.207 10.732
24.221 8.450
24.235 9.675
24.249 11.949
24.262 8.461
24.276 11.593
24.290 11.329
24.304 7.642
24.317 12.063
24.331 11.466
24.345 10.139
24.359 8.203
24.372 8.016
24.386 8.781
24.400 11.275
24.414 7.899
24.427 11.108
24.441 7.321
24.455 9.722
24.469 10.475
24.482 15.833
24.496 7.171
24.510 13.701
24.524 10.734
24.537 11.373
24.551 10.753
24.565 11.543
24.579 10.228
24.592 13.938
24.606 9.639
24.620 13.309
24.634 9.318
24.647 10.703
24.661 8.456
24.675 11.992
24.689 14.306
24.702 10.901
24.716 10.693
24.730 8.669
24.744 10.752
24.757 7.717
24.771 9.337
24.785 12.005
24.799 14.568
24.812 18.039
24.826 10.388
24.840 15.075
24.854 12.448
24.867 11.637
24.881 13.058
24.895 12.308
24.909 12.516
24.922 11.436
24.936 9.286
24.950 9.062
24.964 14.175
24.977 12.173
24.991 11.564
25.005 13.064
25.019 14.982
25.033 13.714
25.046 11.946
25.060 16.373
25.074 17.324
25.088 15.006
25.101 16.255
25.115 17.030
25.129 16.945
25.143 15.947
25.156 16.095
25.170 16.107
25.184 12.624
25.198 16.924
25.211 12.457
25.225 13.959
25.239 18.970
25.253 18.159
25.266 19.887
25.280 16.148
25.294 14.420
25.308 16.786
25.321 17.869
25.335 18.134
25.349 20.868
25.363 17.813
25.376 19.802
25.390 17.133
25.404 20.812
25.418 20.217
25.431 18.948
25.445 20.587
25.459 21.198
25.473 21.523
25.486 26.720
25.500 23.043
25.514 23.326
25.528 19.755
25.541 23.182
25.555 25.348
25.569 25.160
25.583 30.690
25.596 28.045
25.610 32.286
25.624 30.488
25.638 31.495
25.651 32.344
25.665 33.773
25.679 38.984
25.693 31.194
25.706 33.433
25.720 38.390
25.734 41.434
25.748 44.905
25.761 46.527
25.775 46.907
25.789 52.692
25.803 55.623
25.816 56.991
25.830 62.545
25.844 65.371
25.858 68.650
25.871 77.687
25.885 83.776
25.899 92.533
25.913 106.857
25.926 111.313
25.940 129.982
25.954 150.303
25.968 176.029
25.981 204.751
25.995 235.514
26.009 275.879
26.023 321.158
26.037 379.574
26.050 434.574
26.064 491.092
26.078 556.876
26.092 623.523
26.105 691.208
26.119 763.486
26.133 825.920
26.147 885.883
26.160 930.891
26.174 969.142
26.188 993.234
26.202 1000.000
26.215 990.221
26.229 960.859
26.243 926.522
26.257 871.925
26.270 815.575
26.284 748.584
26.298 676.790
26.312 609.834
26.325 543.432
26.339 479.146
26.353 416.946
26.367 365.494
26.380 314.752
26.394 268.202
26.408 232.602
26.422 202.881
26.435 175.558
26.449 145.412
26.463 127.138
26.477 117.018
26.490 98.425
26.504 87.331
26.518 80.617
26.532 75.564
26.545 68.449
26.559 62.216
26.573 57.918
26.587 54.170
26.600 50.590
26.614 54.959
26.628 47.915
26.642 46.977
26.655 41.772
26.669 40.568
26.683 37.625
26.697 31.605
26.710 33.017
26.724 30.651
26.738 28.366
26.752 29.569
26.765 34.188
26.779 30.025
26.793 32.085
26.807 29.163
26.820 29.147
26.834 24.504
26.848 26.985
26.862 26.732
26.875 23.083
26.889 25.030
26.903 24.440
26.917 21.328
26.930 19.482
26.944 18.829
26.958 21.236
26.972 21.322
26.985 18.334
26.999 19.782
27.013 20.624
27.027 20.355
27.041 22.122
27.054 21.153
27.068 15.639
27.082 21.439
27.096 16.099
27.109 19.402
27.123 16.906
27.137 15.552
27.151 12.125
27.164 15.611
27.178 12.222
27.192 17.756
27.206 18.796
27.219 13.327
27.233 15.635
27.247 13.109
27.261 13.151
27.274 16.174
27.288 14.157
27.302 18.047
27.316 12.836
27.329 16.062
27.343 13.867
27.357 15.320
27.371 12.359
27.384 13.138
27.398 12.866
27.412 11.108
27.426 14.406
27.439 14.270
27.453 14.036
27.467 16.082
27.481 15.785
27.494 11.537
27.508 13.149
27.522 10.792
27.536 12.180
27.549 10.680
27.563 15.655
27.577 12.718
27.591 11.320
27.604 14.464
27.618 6.736
27.632 7.026
27.646 13.360
27.659 11.625
27.673 11.998
27.687 8.351
27.701 11.263
27.714 15.825
27.728 13.089
27.742 11.549
27.756 10.116
27.769 10.172
27.783 6.179
27.797 11.572
27.811 12.870
27.824 7.319
27.838 9.364
27.852 8.199
27.866 8.602
27.879 10.890
27.893 5.991
27.907 12.106
27.921 12.396
27.934 10.081
27.948 4.980
27.962 8.335
27.976 13.388
27.989 4.235
28.003 9.749
28.017 7.835
28.031 12.336
28.045 8.951
28.058 11.393
28.072 11.747
28.086 14.628
28.100 9.974
28.113 11.283
28.127 7.036
28.141 13.121
28.155 8.672
28.168 9.122
28.182 10.344
28.196 6.834
28.210 10.912
28.223 12.594
28.237 11.059
28.251 6.777
28.265 10.116
28.278 12.092
28.292 6.133
28.306 7.969
28.320 12.420
28.333 11.049
28.347 11.384
28.361 14.692
28.375 11.539
28.388 11.985
28.402 16.676
28.416 10.035
28.430 8.725
28.443 11.537
28.457 11.585
28.471 9.410
28.485 8.285
28.498 15.922
28.512 11.436
28.526 9.055
28.540 12.840
28.553 10.540
28.567 10.249
28.581 12.143
28.595 7.961
28.608 11.747
28.622 15.344
28.636 12.096
28.650 10.226
28.663 9.978
28.677 10.251
28.691 10.663
28.705 10.438
28.718 13.445
28.732 7.476
28.746 13.450
28.760 10.692
28.773 12.486
28.787 9.137
28.801 14.806
28.815 14.699
28.828 14.133
28.842 8.588
28.856 14.017
28.870 13.147
28.883 8.671
28.897 12.376
28.911 13.371
28.925 13.922
28.938 13.179
28.952 13.564
28.966 16.386
28.980 15.959
28.993 6.782
29.007 12.736
29.021 13.239
29.035 9.788
29.049 14.162
29.062 16.969
29.076 11.838
29.090 15.273
29.104 12.627
29.117 13.397
29.131 18.516
29.145 14.154
29.159 16.690
29.172 11.638
29.186 20.413
29.200 17.834
29.214 16.350
29.227 18.396
29.241 14.213
29.255 20.471
29.269 17.417
29.282 18.087
29.296 17.852
29.310 18.094
29.324 21.468
29.337 20.968
29.351 22.399
29.365 21.458
29.379 23.244
29.392 21.759
29.406 28.468
29.420 20.546
29.434 27.761
29.447 28.832
29.461 24.665
29.475 32.633
29.489 30.848
29.502 31.896
29.516 30.941
29.530 31.674
29.544 33.098
29.557 36.001
29.571 39.994
29.585 39.091
29.599 38.701
29.612 45.024
29.626 47.957
29.640 50.494
29.654 54.390
29.667 56.459
29.681 60.223
29.695 66.733
29.709 72.742
29.722 86.470
29.736 97.283
29.750 110.498
29.764 121.712
29.777 145.887
29.791 175.312
29.805 199.367
29.819 234.145
29.832 267.010
29.846 314.604
29.860 356.104
29.874 405.524
29.887 460.994
29.901 511.147
29.915 558.596
29.929 607.310
29.942 652.999
29.956 693.541
29.970 722.261
29.984 741.414
29.997 753.899
30.011 746.427
30.025 736.193
30.039 704.595
30.053 672.670
30.066 626.420
30.080 579.734
30.094 524.867
30.108 472.514
30.121 424.075
30.135 375.838
30.149 327.266
30.163 281.591
30.176 242.971
30.190 208.761
30.204 178.302
30.218 157.079
30.231 137.776
30.245 117.064
30.259 96.900
30.273 89.203
30.286 79.079
30.300 75.873
30.314 60.932
30.328 57.711
30.341 57.794
30.355 51.000
30.369 47.919
30.383 44.027
30.396 42.019
30.410 40.836
30.424 35.259
30.438 37.335
30.451 30.607
30.465 33.017
30.479 31.333
30.493 28.283
30.506 28.488
30.520 26.058
30.534 24.046
30.548 24.758
30.561 22.188
30.575 24.631
30.589 20.523
30.603 24.055
30.616 19.079
30.630 19.855
30.644 19.134
30.658 23.019
30.671 20.231
30.685 18.503
30.699 19.654
30.713 13.279
30.726 17.560
30.740 21.810
30.754 17.187
30.768 16.682
30.781 17.436
30.795 17.904
30.809 11.009
30.823 11.433
30.836 15.462
30.850 13.089
30.864 17.449
30.878 13.500
30.891 9.580
30.905 10.875
30.919 7.288
30.933 12.811
30.946 12.719
30.960 11.993
30.974 15.235
30.988 15.335
31.002 12.051
31.015 7.419
31.029 13.530
31.043 13.241
31.057 12.538
31.070 13.931
31.084 8.912
31.098 16.010
31.112 9.128
31.125 12.900
31.139 7.237
31.153 8.850
31.167 14.313
31.180 10.163
31.194 12.570
31.208 11.100
31.222 10.227
31.235 13.481
31.249 9.749
31.263 6.148
31.277 8.291
31.290 11.295
31.304 10.863
31.318 6.319
31.332 8.165
31.345 8.418
31.359 8.842
31.373 6.474
31.387 8.111
31.400 7.820
31.414 11.174
31.428 11.200
31.442 8.968
31.455 8.351
31.469 9.507
31.483 7.276
31.497 6.472
31.510 6.891
31.524 7.537
31.538 6.285
31.552 9.256
31.565 10.503
31.579 5.184
31.593 8.811
31.607 8.210
31.620 9.447
31.634 8.600
31.648 5.280
31.662 5.677
31.675 8.581
31.689 10.820
31.703 3.400
31.717 9.194
31.730 11.081
31.744 7.991
31.758 9.559
31.772 6.674
31.785 7.971
31.799 4.522
31.813 2.845
31.827 10.300
31.840 5.882
31.854 7.060
31.868 4.913
31.882 4.833
31.895 7.621
31.909 6.330
31.923 8.827
31.937 8.972
31.950 8.648
31.964 8.437
31.978 11.463
31.992 5.418
32.006 7.701
32.019 10.383
32.033 10.662
32.047 4.525
32.061 7.031
32.074 10.814
32.088 8.859
32.102 8.128
32.116 7.169
32.129 6.772
32.143 8.284
32.157 7.035
32.171 7.496
32.184 7.754
32.198 6.015
32.212 8.754
32.226 14.161
32.239 3.464
32.253 8.232
32.267 5.749
32.281 8.779
32.294 7.556
32.308 9.170
32.322 10.098
32.336 7.846
32.349 9.972
32.363 2.043
32.377 10.989
32.391 8.209
32.404 9.797
32.418 4.553
32.432 5.427
32.446 7.639
32.459 7.256
32.473 7.928
32.487 9.741
32.501 3.242
32.514 9.468
32.528 7.259
32.542 6.766
32.556 3.870
32.569 8.355
32.583 1.703
32.597 8.666
32.611 3.784
32.624 7.293
32.638 6.891
32.652 9.817
32.666 6.738
32.679 5.556
32.693 5.975
32.707 10.019
32.721 8.334
32.734 6.227
32.748 6.559
32.762 3.522
32.776 7.967
32.789 3.069
32.803 8.780
32.817 7.355
32.831 12.490
32.844 4.544
32.858 6.809
32.872 11.131
32.886 9.743
32.899 5.439
32.913 7.529
32.927 7.018
32.941 7.650
32.954 5.412
32.968 6.794
32.982 3.354
32.996 7.295
33.010 8.008
33.023 6.461
33.037 3.297
33.051 9.221
33.065 7.796
33.078 5.309
33.092 6.319
33.106 3.538
33.120 4.617
33.133 5.723
33.147 9.742
33.161 5.486
33.175 8.396
33.188 5.710
33.202 7.498
33.216 6.609
33.230 8.916
33.243 5.709
33.257 3.344
33.271 3.776
33.285 5.710
33.298 4.075
33.312 7.851
33.326 5.856
33.340 12.321
33.353 2.958
33.367 7.377
33.381 4.344
33.395 5.788
33.408 7.233
33.422 1.617
33.436 7.450
33.450 11.244
33.463 5.879
33.477 7.503
33.491 9.246
33.505 6.540
33.518 5.591
33.532 1.734
33.546 8.376
33.560 6.660
33.573 4.614
33.587 7.209
33.601 5.594
33.615 5.722
33.628 8.308
33.642 3.883
33.656 9.317
33.670 3.753
33.683 5.430
33.697 11.320
33.711 9.513
33.725 7.172
33.738 4.812
33.752 5.753
33.766 7.129
33.780 7.052
33.793 6.765
33.807 6.906
33.821 6.494
33.835 3.705
33.848 5.817
33.862 9.082
33.876 3.891
33.890 6.581
33.903 5.153
33.917 7.280
33.931 6.149
33.945 10.406
33.958 8.204
33.972 4.072
33.986 8.596
34.000 5.313
34.014 5.772
34.027 7.810
34.041 5.986
34.055 9.149
34.069 5.364
34.082 5.729
34.096 5.655
34.110 5.874
34.124 9.677
34.137 8.619
34.151 11.094
34.165 12.377
34.179 4.882
34.192 7.404
34.206 4.581
34.220 5.504
34.234 5.856
34.247 4.901
34.261 4.930
34.275 7.015
34.289 4.592
34.302 9.298
34.316 5.311
34.330 13.818
34.344 6.415
34.357 7.629
34.371 4.538
34.385 11.396
34.399 10.084
34.412 8.237
34.426 4.520
34.440 8.094
34.454 5.089
34.467 11.000
34.481 9.543
34.495 7.949
34.509 2.216
34.522 5.558
34.536 9.397
34.550 10.628
34.564 10.429
34.577 4.317
34.591 8.668
34.605 10.335
34.619 4.290
34.632 8.092
34.646 8.779
34.660 7.519
34.674 4.036
34.687 7.563
34.701 7.613
34.715 8.077
34.729 7.189
34.742 7.523
34.756 8.504
34.770 9.667
34.784 8.034
34.797 7.866
34.811 9.082
34.825 4.576
34.839 10.116
34.852 9.112
34.866 9.291
34.880 11.480
34.894 4.942
34.907 4.994
34.921 10.216
34.935 9.686
34.949 10.205
34.962 8.886
34.976 11.577
34.990 12.321
35.004 11.439
35.018 9.890
35.031 5.840
35.045 12.553
35.059 13.755
35.073 12.622
35.086 9.342
35.100 13.081
35.114 13.720
35.128 15.536
35.141 10.232
35.155 11.965
35.169 14.452
35.183 13.168
35.196 10.799
35.210 14.612
35.224 15.333
35.238 14.586
35.251 15.283
35.265 14.619
35.279 19.030
35.293 14.104
35.306 15.347
35.320 17.281
35.334 19.877
35.348 15.142
35.361 16.307
35.375 15.466
35.389 21.085
35.403 19.480
35.416 22.302
35.430 26.005
35.444 24.576
35.458 28.372
35.471 29.321
35.485 34.128
35.499 36.827
35.513 38.004
35.526 43.875
35.540 52.338
35.554 57.776
35.568 62.036
35.581 76.663
35.595 84.453
35.609 103.835
35.623 118.684
35.636 134.799
35.650 154.256
35.664 174.955
35.678 199.954
35.691 221.512
35.705 247.188
35.719 272.513
35.733 291.816
35.746 311.972
35.760 327.644
35.774 340.694
35.788 346.701
35.801 354.762
35.815 353.797
35.829 344.070
35.843 323.405
35.856 310.994
35.870 291.736
35.884 264.537
35.898 241.774
35.911 212.692
35.925 194.083
35.939 168.348
35.953 150.043
35.966 126.681
35.980 114.116
35.994 99.914
36.008 82.523
36.022 70.360
36.035 58.445
36.049 54.728
36.063 47.367
36.077 39.690
36.090 39.768
36.104 34.037
36.118 29.593
36.132 28.288
36.145 29.916
36.159 27.105
36.173 23.952
36.187 24.378
36.200 19.207
36.214 20.936
36.228 20.316
36.242 18.116
36.255 19.455
36.269 16.027
36.283 18.358
36.297 17.895
36.310 9.480
36.324 18.352
36.338 8.258
36.352 13.379
36.365 16.729
36.379 13.311
36.393 10.357
36.407 10.889
36.420 15.421
36.434 8.430
36.448 15.115
36.462 12.173
36.475 9.353
36.489 10.523
36.503 9.330
36.517 13.426
36.530 12.939
36.544 7.186
36.558 10.019
36.572 8.820
36.585 13.586
36.599 7.431
36.613 14.028
36.627 10.178
36.640 7.493
36.654 8.488
36.668 8.102
36.682 6.928
36.695 9.954
36.709 6.856
36.723 4.606
36.737 8.629
36.750 5.316
36.764 7.641
36.778 7.220
36.792 7.246
36.805 13.730
36.819 9.251
36.833 9.633
36.847 4.986
36.860 7.500
36.874 9.442
36.888 6.585
36.902 10.955
36.915 6.122
36.929 8.184
36.943 7.482
36.957 9.173
36.970 7.327
36.984 8.158
36.998 8.230
37.012 7.092
37.026 9.869
37.039 9.311
37.053 8.574
37.067 7.807
37.081 10.616
37.094 8.285
37.108 8.148
37.122 9.113
37.136 12.771
37.149 5.894
37.163 10.742
37.177 4.728
37.191 9.588
37.204 12.741
37.218 10.336
37.232 9.687
37.246 8.106
37.259 9.545
37.273 9.001
37.287 7.897
37.301 9.149
37.314 10.395
37.328 8.345
37.342 8.420
37.356 7.340
37.369 11.529
37.383 12.107
37.397 11.649
37.411 13.611
37.424 11.950
37.438 13.035
37.452 13.298
37.466 12.952
37.479 12.620
37.493 19.681
37.507 14.602
37.521 15.329
37.534 19.318
37.548 20.712
37.562 19.130
37.576 27.513
37.589 27.865
37.603 29.212
37.617 38.684
37.631 42.226
37.644 43.323
37.658 56.185
37.672 60.032
37.686 65.241
37.699 75.796
37.713 79.427
37.727 85.625
37.741 90.277
37.754 98.374
37.768 102.304
37.782 104.075
37.796 103.540
37.809 105.320
37.823 102.959
37.837 96.708
37.851 91.759
37.864 90.764
37.878 77.208
37.892 76.824
37.906 68.322
37.919 65.501
37.933 54.755
37.947 51.124
37.961 42.954
37.974 38.906
37.988 35.699
38.002 28.927
38.016 28.771
38.030 21.285
38.043 21.737
38.057 21.103
38.071 18.801
38.085 20.261
38.098 13.010
38.112 10.664
38.126 10.761
38.140 13.882
38.153 12.969
38.167 11.607
38.181 8.422
38.195 12.379
38.208 7.541
38.222 12.696
38.236 16.319
38.250 10.426
38.263 10.716
38.277 8.080
38.291 4.908
38.305 7.497
38.318 6.233
38.332 5.288
38.346 12.375
38.360 8.954
38.373 9.084
38.387 7.410
38.401 7.620
38.415 10.115
38.428 7.757
38.442 8.955
38.456 7.222
38.470 6.815
38.483 4.320
38.497 2.953
38.511 6.797
38.525 7.461
38.538 4.346
38.552 7.142
38.566 7.291
38.580 2.210
38.593 4.988
38.607 7.954
38.621 7.865
38.635 4.315
38.648 7.264
38.662 9.193
38.676 8.598
38.690 6.577
38.703 5.695
38.717 5.296
38.731 7.763
38.745 7.113
38.758 8.073
38.772 6.913
38.786 8.451
38.800 6.777
38.813 8.323
38.827 8.496
38.841 4.659
38.855 2.352
38.868 9.961
38.882 7.011
38.896 2.503
38.910 4.762
38.923 8.126
38.937 5.714
38.951 5.168
38.965 9.506
38.978 3.916
38.992 4.467
39.006 6.750
39.020 7.143
39.034 7.370
39.047 8.300
39.061 6.664
39.075 7.313
39.089 5.596
39.102 6.316
39.116 6.406
39.130 6.639
39.144 7.897
39.157 7.391
39.171 6.216
39.185 4.263
39.199 6.249
39.212 6.021
39.226 6.515
39.240 11.089
39.254 4.864
39.267 7.009
39.281 8.471
39.295 6.253
39.309 11.344
39.322 5.152
39.336 6.743
39.350 4.179
39.364 5.189
39.377 6.549
39.391 7.902
39.405 6.695
39.419 8.828
39.432 5.738
39.446 5.192
39.460 12.098
39.474 6.833
39.487 4.291
39.501 4.343
39.515 3.772
39.529 8.045
39.542 5.077
39.556 6.192
39.570 5.752
39.584 7.557
39.597 3.959
39.611 3.433
39.625 6.388
39.639 7.241
39.652 6.625
39.666 4.021
39.680 7.402
39.694 4.162
39.707 4.664
39.721 3.698
39.735 8.806
39.749 7.282
39.762 7.214
39.776 8.673
39.790 12.234
39.804 1.935
39.817 4.143
39.831 4.418
39.845 3.881
39.859 3.362
39.872 5.130
39.886 3.040
39.900 6.570
39.914 5.923
39.927 6.898
39.941 6.956
39.955 7.171
39.969 4.946
39.982 10.624
39.996 6.326
40.010 1.550
40.024 3.507
40.038 1.825
40.051 5.826
40.065 5.508
40.079 4.717
40.093 10.361
40.106 7.031
40.120 7.434
40.134 3.660
40.148 3.504
40.161 5.862
40.175 6.172
40.189 1.551
40.203 5.367
40.216 5.809
40.230 5.287
40.244 3.925
40.258 4.549
40.271 5.375
40.285 5.985
40.299 7.155
40.313 8.240
40.326 5.110
40.340 4.742
40.354 6.778
40.368 7.174
40.381 4.795
40.395 7.585
40.409 8.017
40.423 8.730
40.436 9.839
40.450 3.820
40.464 5.826
40.478 5.823
40.491 5.576
40.505 4.324
40.519 2.422
40.533 6.019
40.546 4.061
40.560 6.010
40.574 4.010
40.588 3.318
40.601 6.359
40.615 6.173
40.629 7.153
40.643 10.815
40.656 6.475
40.670 6.953
40.684 3.400
40.698 2.929
40.711 9.469
40.725 3.768
40.739 3.501
40.753 5.795
40.766 5.686
40.780 3.844
40.794 5.212
40.808 8.713
40.821 4.088
40.835 2.758
40.849 8.087
40.863 7.071
40.876 4.547
40.890 2.368
40.904 4.286
40.918 5.869
40.931 8.659
40.945 3.658
40.959 5.838
40.973 7.582
40.986 0.637
41.000 8.428
41.014 3.397
41.028 6.862
41.042 6.685
41.055 8.611
41.069 7.415
41.083 0.768
41.097 4.414
41.110 6.538
41.124 5.802
41.138 7.358
41.152 8.093
41.165 7.708
41.179 5.862
41.193 2.176
41.207 5.374
41.220 7.392
41.234 3.996
41.248 7.952
41.262 8.622
41.275 6.883
41.289 0.000
41.303 3.773
41.317 11.025
41.330 5.538
41.344 2.319
41.358 9.707
41.372 6.986
41.385 9.537
41.399 7.721
41.413 8.209
41.427 8.071
41.440 8.917
41.454 12.606
41.468 9.729
41.482 4.025
41.495 8.753
41.509 10.456
41.523 10.728
41.537 7.161
41.550 10.941
41.564 10.572
41.578 14.506
41.592 7.152
41.605 7.941
41.619 8.669
41.633 8.560
41.647 8.012
41.660 4.175
41.674 9.986
41.688 12.433
41.702 11.216
41.715 17.658
41.729 14.395
41.743 18.659
41.757 17.957
41.770 21.220
41.784 22.329
41.798 27.583
41.812 27.817
41.825 32.511
41.839 36.374
41.853 39.486
41.867 46.060
41.880 55.531
41.894 55.330
41.908 62.448
41.922 69.770
41.935 74.572
41.949 76.502
41.963 74.750
41.977 84.047
41.990 79.337
42.004 87.984
42.018 83.980
42.032 83.607
42.046 75.936
42.059 70.232
42.073 69.479
42.087 63.500
42.101 56.936
42.114 52.708
42.128 53.418
42.142 43.890
42.156 39.618
42.169 34.816
42.183 32.390
42.197 25.186
42.211 17.997
42.224 19.734
42.238 19.895
42.252 14.072
42.266 14.417
42.279 12.042
42.293 16.051
42.307 13.530
42.321 12.643
42.334 12.025
42.348 10.066
42.362 10.214
42.376 6.736
42.389 4.171
42.403 9.241
42.417 9.415
42.431 11.232
42.444 11.877
42.458 11.710
42.472 5.714
42.486 7.047
42.499 8.815
42.513 13.368
42.527 10.864
42.541 9.941
42.554 6.415
42.568 5.198
42.582 8.922
42.596 4.542
42.609 6.432
42.623 6.645
42.637 10.468
42.651 5.973
42.664 1.170
42.678 7.818
42.692 5.027
42.706 6.668
42.719 6.328
42.733 5.859
42.747 8.240
42.761 2.912
42.774 5.188
42.788 7.887
42.802 4.898
42.816 2.602
42.829 7.757
42.843 8.763
42.857 6.076
42.871 1.688
42.884 7.735
42.898 2.324
42.912 6.784
42.926 4.038
42.939 3.397
42.953 5.012
42.967 5.581
42.981 4.514
42.994 7.303
43.008 4.930
43.022 8.161
43.036 6.554
43.050 4.311
43.063 3.913
43.077 2.120
43.091 6.520
43.105 5.038
43.118 0.432
43.132 4.601
43.146 3.758
43.160 9.387
43.173 1.912
43.187 2.497
43.201 8.296
43.215 8.849
43.228 4.054
43.242 4.303
43.256 7.137
43.270 0.427
43.283 1.480
43.297 5.071
43.311 9.232
43.325 4.704
43.338 5.920
43.352 8.265
43.366 10.474
43.380 4.358
43.393 5.627
43.407 9.809
43.421 2.189
43.435 7.990
43.448 3.327
43.462 5.874
43.476 5.084
43.490 3.451
43.503 3.390
43.517 6.254
43.531 7.887
43.545 5.322
43.558 5.773
43.572 6.911
43.586 3.395
43.600 7.289
43.613 7.467
43.627 11.527
43.641 4.740
43.655 4.551
43.668 7.343
43.682 7.455
43.696 4.370
43.710 4.669
43.723 6.817
43.737 3.699
43.751 4.648
43.765 5.785
43.778 7.848
43.792 4.203
43.806 1.384
43.820 1.214
43.833 2.710
43.847 2.587
43.861 5.224
43.875 2.869
43.888 3.976
43.902 3.814
43.916 4.574
43.930 8.588
43.943 7.085
43.957 5.615
43.971 4.529
43.985 4.593
43.998 6.327
44.012 6.912
44.026 3.517
44.040 5.668
44.054 0.961
44.067 6.070
44.081 7.325
44.095 4.954
44.109 9.730
44.122 3.590
44.136 6.094
44.150 5.520
44.164 5.376
44.177 5.347
44.191 5.854
44.205 7.544
44.219 8.754
44.232 5.616
44.246 7.481
44.260 4.031
44.274 7.377
44.287 3.903
44.301 8.125
44.315 10.680
44.329 5.374
44.342 0.665
44.356 4.415
44.370 8.473
44.384 6.934
44.397 6.247
44.411 7.984
44.425 6.797
44.439 8.473
44.452 7.801
44.466 9.180
44.480 6.540
44.494 7.793
44.507 5.041
44.521 4.380
44.535 9.644
44.549 6.260
44.562 7.610
44.576 6.070
44.590 4.464
44.604 5.835
44.617 9.091
44.631 7.098
44.645 1.950
44.659 5.370
44.672 9.931
44.686 5.401
44.700 1.803
44.714 10.228
44.727 7.488
44.741 5.791
44.755 5.123
44.769 8.451
44.782 4.772
44.796 8.640
44.810 7.280
44.824 6.625
44.837 6.421
44.851 5.715
44.865 8.519
44.879 4.194
44.892 2.498
44.906 7.618
44.920 7.686
44.934 7.373
44.947 7.240
44.961 5.616
44.975 8.175
44.989 6.316
45.003 5.350
45.016 5.790
45.030 11.145
45.044 2.640
45.058 7.777
45.071 2.867
45.085 6.498
45.099 5.814
45.113 2.115
45.126 7.812
45.140 6.129
45.154 2.287
45.168 9.054
45.181 10.491
45.195 10.703
45.209 8.220
45.223 7.606
45.236 10.631
45.250 11.550
45.264 10.421
45.278 5.825
45.291 8.567
45.305 9.259
45.319 4.300
45.333 9.665
45.346 13.962
45.360 10.454
45.374 12.582
45.388 9.900
45.401 9.604
45.415 10.963
45.429 8.610
45.443 8.706
45.456 14.293
45.470 15.140
45.484 10.488
45.498 15.832
45.511 14.505
45.525 16.790
45.539 18.665
45.553 21.823
45.566 22.090
45.580 27.912
45.594 28.715
45.608 33.293
45.621 34.416
45.635 46.257
45.649 48.008
45.663 54.671
45.676 55.919
45.690 64.531
45.704 76.163
45.718 80.840
45.731 82.323
45.745 94.909
45.759 96.258
45.773 104.474
45.786 103.410
45.800 104.862
45.814 106.248
45.828 99.126
45.841 95.107
45.855 91.939
45.869 88.382
45.883 76.961
45.896 69.345
45.910 68.078
45.924 58.012
45.938 51.970
45.951 42.540
45.965 39.642
45.979 36.159
45.993 33.870
46.007 26.150
46.020 28.387
46.034 20.269
46.048 17.942
46.062 21.066
46.075 16.456
46.089 13.412
46.103 13.246
46.117 15.802
46.130 15.334
46.144 9.534
46.158 10.790
46.172 10.661
46.185 7.839
46.199 9.634
46.213 9.487
46.227 11.816
46.240 11.739
46.254 8.032
46.268 8.103
46.282 9.928
46.295 6.921
46.309 9.444
46.323 7.765
46.337 5.629
46.350 5.537
46.364 10.898
46.378 7.142
46.392 11.135
46.405 6.139
46.419 7.885
46.433 12.588
46.447 4.657
46.460 2.671
46.474 9.854
46.488 4.978
46.502 6.753
46.515 5.409
46.529 7.300
46.543 4.474
46.557 6.180
46.570 7.568
46.584 4.204
46.598 4.865
46.612 5.628
46.625 3.129
46.639 5.384
46.653 6.582
46.667 5.370
46.680 5.631
46.694 6.174
46.708 4.698
46.722 7.738
46.735 9.408
46.749 5.057
46.763 7.195
46.777 5.523
46.790 6.879
46.804 9.591
46.818 7.165
46.832 1.950
46.845 7.003
46.859 8.759
46.873 5.431
46.887 8.187
46.900 4.333
46.914 2.507
46.928 6.197
46.942 1.863
46.955 5.303
46.969 8.766
46.983 1.476
46.997 2.900
47.011 3.452
47.024 5.647
47.038 4.948
47.052 8.956
47.066 7.934
47.079 6.880
47.093 6.075
47.107 6.630
47.121 3.765
47.134 7.671
47.148 3.180
47.162 7.607
47.176 8.398
47.189 6.171
47.203 5.284
47.217 6.590
47.231 0.000
47.244 6.356
47.258 5.404
47.272 5.542
47.286 7.261
47.299 5.477
47.313 3.047
47.327 5.316
47.341 5.788
47.354 5.892
47.368 5.995
47.382 7.990
47.396 3.147
47.409 6.017
47.423 8.550
47.437 1.661
47.451 6.017
47.464 4.273
47.478 4.759
47.492 3.541
47.506 5.213
47.519 9.789
47.533 2.716
47.547 2.930
47.561 2.627
47.574 9.523
47.588 4.536
47.602 5.529
47.616 4.670
47.629 3.435
47.643 5.050
47.657 11.181
47.671 8.753
47.684 3.641
47.698 7.057
47.712 3.690
47.726 1.538
47.739 7.904
47.753 8.224
47.767 7.965
47.781 4.514
47.794 5.204
47.808 7.292
47.822 6.477
47.836 4.690
47.849 1.901
47.863 5.847
47.877 8.046
47.891 2.863
47.904 7.046
47.918 6.348
47.932 7.302
47.946 7.581
47.959 4.017
47.973 1.918
47.987 4.387
48.001 7.628
48.015 4.372
48.028 4.028
48.042 1.463
48.056 9.603
48.070 7.495
48.083 7.371
48.097 7.824
48.111 6.937
48.125 5.070
48.138 5.257
48.152 4.659
48.166 11.635
48.180 6.905
48.193 4.587
48.207 6.706
48.221 3.349
48.235 9.080
48.248 4.153
48.262 6.803
48.276 8.093
48.290 6.547
48.303 5.890
48.317 5.704
48.331 5.556
48.345 4.376
48.358 4.671
48.372 9.068
48.386 5.457
48.400 3.921
48.413 4.540
48.427 8.226
48.441 7.265
48.455 7.008
48.468 5.152
48.482 7.050
48.496 4.286
48.510 5.166
48.523 7.972
48.537 7.761
48.551 3.542
48.565 3.837
48.578 6.039
48.592 9.729
48.606 1.445
48.620 6.448
48.633 2.689
48.647 4.386
48.661 5.009
48.675 4.890
48.688 4.640
48.702 5.881
48.716 4.655
48.730 2.553
48.743 7.668
48.757 7.616
48.771 7.831
48.785 2.414
48.798 6.612
48.812 7.481
48.826 3.605
48.840 5.985
48.853 5.711
48.867 10.181
48.881 10.380
48.895 2.221
48.908 11.701
48.922 3.951
48.936 8.281
48.950 8.271
48.963 3.807
48.977 7.211
48.991 5.857
49.005 7.378
49.019 6.656
49.032 8.870
49.046 6.333
49.060 5.795
49.074 8.689
49.087 7.531
49.101 7.892
49.115 4.730
49.129 3.881
49.142 4.986
49.156 4.884
49.170 8.106
49.184 8.558
49.197 6.002
49.211 9.634
49.225 9.512
49.239 6.972
49.252 4.568
49.266 10.049
49.280 6.346
49.294 6.796
49.307 5.759
49.321 4.531
49.335 3.239
49.349 8.049
49.362 4.851
49.376 13.628
49.390 4.218
49.404 3.856
49.417 7.910
49.431 10.261
49.445 6.957
49.459 8.145
49.472 2.678
49.486 5.367
49.500 4.500
49.514 2.665
49.527 7.283
49.541 1.948
49.555 4.083
49.569 5.910
49.582 5.282
49.596 8.120
49.610 7.957
49.624 9.341
49.637 9.065
49.651 9.998
49.665 7.445
49.679 8.191
49.692 8.718
49.706 7.930
49.720 6.759
49.734 6.964
49.747 5.919
49.761 8.802
49.775 7.692
49.789 6.462
49.802 6.532
49.816 5.354
49.830 10.412
49.844 8.438
49.857 6.372
49.871 10.259
49.885 7.226
49.899 5.387
49.912 11.004
49.926 7.550
49.940 7.939
49.954 9.065
49.967 11.678
49.981 9.232
49.995 6.570
50.009 10.656
50.023 8.437
50.036 13.968
50.050 9.801
50.064 4.855
50.078 10.903
50.091 14.669
50.105 13.988
50.119 14.735
50.133 8.419
50.146 13.000
50.160 9.470
50.174 11.824
50.188 8.625
50.201 10.276
50.215 10.435
50.229 14.264
50.243 14.298
50.256 13.374
50.270 9.954
50.284 12.619
50.298 11.946
50.311 15.960
50.325 17.016
50.339 17.114
50.353 13.387
50.366 9.290
50.380 11.953
50.394 19.690
50.408 16.047
50.421 15.792
50.435 21.820
50.449 21.578
50.463 19.415
50.476 19.401
50.490 20.531
50.504 22.171
50.518 26.185
50.531 24.466
50.545 26.203
50.559 28.357
50.573 24.291
50.586 30.070
50.600 29.244
50.614 25.956
50.628 28.865
50.641 33.742
50.655 40.030
50.669 42.363
50.683 46.468
50.696 55.268
50.710 53.754
50.724 63.679
50.738 73.089
50.751 81.228
50.765 95.650
50.779 107.110
50.793 131.908
50.806 148.112
50.820 178.438
50.834 201.120
50.848 234.049
50.861 264.960
50.875 300.763
50.889 336.928
50.903 376.692
50.916 414.880
50.930 448.309
50.944 482.435
50.958 509.061
50.971 537.013
50.985 545.218
50.999 554.031
51.013 546.264
51.027 534.857
51.040 510.977
51.054 486.079
51.068 455.566
51.082 423.145
51.095 382.477
51.109 346.945
51.123 307.657
51.137 273.861
51.150 236.268
51.164 210.893
51.178 176.500
51.192 151.241
51.205 128.811
51.219 118.503
51.233 99.508
51.247 83.859
51.260 76.659
51.274 66.477
51.288 62.082
51.302 48.094
51.315 46.100
51.329 41.597
51.343 34.788
51.357 38.867
51.370 33.435
51.384 33.666
51.398 35.553
51.412 27.786
51.425 26.213
51.439 26.165
51.453 26.983
51.467 22.386
51.480 21.267
51.494 24.214
51.508 21.839
51.522 15.551
51.535 16.700
51.549 22.241
51.563 19.114
51.577 15.881
51.590 16.683
51.604 16.590
51.618 17.755
51.632 12.536
51.645 13.289
51.659 15.426
51.673 14.200
51.687 15.373
51.700 10.935
51.714 14.230
51.728 15.601
51.742 13.939
51.755 12.876
51.769 12.084
51.783 10.158
51.797 11.663
51.810 14.474
51.824 11.125
51.838 9.170
51.852 9.884
51.865 11.280
51.879 9.799
51.893 11.588
51.907 11.515
51.920 12.197
51.934 13.268
51.948 12.156
51.962 7.628
51.975 7.570
51.989 9.332
52.003 8.360
52.017 6.682
52.031 8.160
52.044 7.981
52.058 7.432
52.072 8.146
52.086 11.456
52.099 9.137
52.113 14.226
52.127 8.903
52.141 7.775
52.154 8.368
52.168 8.869
52.182 9.204
52.196 12.873
52.209 6.153
52.223 9.970
52.237 8.425
52.251 4.315
52.264 9.589
52.278 10.665
52.292 5.773
52.306 7.652
52.319 3.694
52.333 4.708
52.347 9.913
52.361 6.419
52.374 4.912
52.388 7.917
52.402 6.163
52.416 6.241
52.429 8.958
52.443 4.592
52.457 5.139
52.471 7.517
52.484 9.339
52.498 9.918
52.512 5.553
52.526 9.171
52.539 5.221
52.553 11.136
52.567 4.369
52.581 9.948
52.594 5.402
52.608 11.456
52.622 8.194
52.636 4.511
52.649 5.612
52.663 8.558
52.677 9.155
52.691 6.577
52.704 6.819
52.718 8.425
52.732 6.980
52.746 3.718
52.759 4.795
52.773 7.165
52.787 9.381
52.801 10.278
52.814 8.359
52.828 7.224
52.842 8.262
52.856 5.026
52.869 6.183
52.883 4.644
52.897 3.666
52.911 7.259
52.924 6.912
52.938 8.046
52.952 7.715
52.966 7.016
52.979 7.723
52.993 6.351
53.007 7.382
53.021 4.783
53.035 7.272
53.048 7.948
53.062 4.897
53.076 6.536
53.090 4.995
53.103 5.213
53.117 3.848
53.131 9.290
53.145 8.833
53.158 7.630
53.172 10.897
53.186 5.977
53.200 13.312
53.213 5.893
53.227 6.995
53.241 5.511
53.255 7.269
53.268 8.328
53.282 6.172
53.296 10.482
53.310 6.988
53.323 7.067
53.337 4.390
53.351 7.421
53.365 6.173
53.378 5.104
53.392 4.732
53.406 12.596
53.420 5.926
53.433 3.223
53.447 4.966
53.461 6.454
53.475 7.834
53.488 7.871
53.502 8.168
53.516 5.180
53.530 7.445
53.543 4.699
53.557 5.308
53.571 4.656
53.585 4.067
53.598 9.226
53.612 8.402
53.626 9.091
53.640 6.992
53.653 8.708
53.667 2.968
53.681 8.985
53.695 7.467
53.708 8.538
53.722 8.024
53.736 4.964
53.750 3.855
53.763 5.703
53.777 8.672
53.791 9.023
53.805 4.406
53.818 5.361
53.832 6.026
53.846 6.943
53.860 4.744
53.873 4.701
53.887 6.169
53.901 8.343
53.915 5.574
53.928 8.121
53.942 10.925
53.956 5.692
53.970 8.336
53.983 11.302
53.997 8.191
54.011 8.025
54.025 12.184
54.039 9.060
54.052 12.513
54.066 11.241
54.080 9.776
54.094 11.976
54.107 11.980
54.121 13.993
54.135 10.901
54.149 12.805
54.162 13.235
54.176 15.771
54.190 12.790
54.204 18.600
54.217 18.761
54.231 16.425
54.245 24.272
54.259 29.147
54.272 29.390
54.286 33.984
54.300 35.192
54.314 36.157
54.327 41.388
54.341 52.514
54.355 57.591
54.369 64.437
54.382 74.404
54.396 84.243
54.410 87.864
54.424 98.238
54.437 110.227
54.451 110.970
54.465 120.786
54.479 121.540
54.492 125.939
54.506 127.328
54.520 124.724
54.534 121.508
54.547 111.639
54.561 110.343
54.575 98.475
54.589 93.023
54.602 84.762
54.616 77.031
54.630 68.692
54.644 58.434
54.657 50.279
54.671 48.992
54.685 41.782
54.699 39.039
54.712 32.073
54.726 25.375
54.740 27.765
54.754 22.239
54.767 21.835
54.781 17.948
54.795 21.862
54.809 15.095
54.822 15.525
54.836 15.935
54.850 12.767
54.864 15.717
54.877 18.482
54.891 13.678
54.905 15.815
54.919 8.925
54.932 15.532
54.946 15.529
54.960 15.210
54.974 20.603
54.987 18.726
55.001 20.675
55.015 22.129
55.029 20.838
55.043 25.141
55.056 32.704
55.070 28.753
55.084 35.042
55.098 39.215
55.111 47.444
55.125 48.465
55.139 48.447
55.153 55.300
55.166 52.732
55.180 58.150
55.194 53.445
55.208 58.870
55.221 54.592
55.235 51.524
55.249 51.077
55.263 49.393
55.276 44.452
55.290 43.425
55.304 37.322
55.318 36.564
55.331 32.774
55.345 28.430
55.359 24.608
55.373 23.277
55.386 21.797
55.400 23.146
55.414 18.782
55.428 17.324
55.441 20.834
55.455 13.890
55.469 12.918
55.483 12.673
55.496 8.158
55.510 8.937
55.524 8.374
55.538 10.649
55.551 8.480
55.565 8.936
55.579 10.877
55.593 10.173
55.606 7.668
55.620 6.357
55.634 10.327
55.648 9.377
55.661 3.841
55.675 6.676
55.689 7.666
55.703 8.969
55.716 9.180
55.730 7.673
55.744 8.282
55.758 7.023
55.771 5.275
55.785 6.151
55.799 6.729
55.813 6.549
55.826 2.281
55.840 5.618
55.854 6.603
55.868 5.788
55.881 5.824
55.895 7.455
55.909 3.848
55.923 2.560
55.936 5.438
55.950 7.937
55.964 10.006
55.978 7.914
55.991 2.760
56.005 5.546
56.019 6.632
56.033 6.425
56.047 7.224
56.060 3.884
56.074 6.097
56.088 6.883
56.102 7.785
56.115 4.050
56.129 5.079
56.143 0.000
56.157 4.413
56.170 4.616
56.184 3.472
56.198 6.154
56.212 5.633
56.225 0.602
56.239 6.221
56.253 3.603
56.267 6.809
56.280 2.771
56.294 5.745
56.308 5.020
56.322 6.343
56.335 5.925
56.349 5.049
56.363 2.121
56.377 2.245
56.390 4.269
56.404 5.570
56.418 4.194
56.432 6.994
56.445 4.926
56.459 3.356
56.473 4.911
56.487 6.051
56.500 6.268
56.514 9.798
56.528 3.991
56.542 5.339
56.555 6.470
56.569 5.440
56.583 4.347
56.597 1.953
56.610 4.311
56.624 3.024
56.638 1.532
56.652 3.646
56.665 3.068
56.679 6.776
56.693 6.811
56.707 3.379
56.720 4.840
56.734 1.198
56.748 4.299
56.762 6.328
56.775 7.294
56.789 3.789
56.803 7.803
56.817 1.954
56.830 2.561
56.844 7.014
56.858 9.200
56.872 6.515
56.885 5.297
56.899 0.388
56.913 0.779
56.927 5.676
56.940 4.563
56.954 2.858
56.968 5.523
56.982 5.634
56.995 7.520
57.009 5.679
57.023 8.163
57.037 5.383
57.051 5.101
57.064 7.785
57.078 3.133
57.092 11.767
57.106 6.212
57.119 6.224
57.133 6.552
57.147 9.629
57.161 7.159
57.174 1.699
57.188 8.549
57.202 4.577
57.216 5.596
57.229 2.440
57.243 6.550
57.257 3.869
57.271 5.580
57.284 4.705
57.298 9.735
57.312 9.866
57.326 5.459
57.339 5.499
57.353 4.504
57.367 7.873
57.381 4.607
57.394 4.398
57.408 7.586
57.422 4.133
57.436 5.274
57.449 1.761
57.463 6.966
57.477 9.783
57.491 7.008
57.504 8.696
57.518 3.443
57.532 5.910
57.546 3.226
57.559 4.857
57.573 7.136
57.587 5.612
57.601 2.167
57.614 2.391
57.628 2.243
57.642 6.510
57.656 10.093
57.669 8.499
57.683 1.083
57.697 8.639
57.711 7.539
57.724 1.892
57.738 4.724
57.752 7.912
57.766 6.675
57.779 2.445
57.793 6.820
57.807 0.567
57.821 4.931
57.834 8.034
57.848 5.490
57.862 4.317
57.876 7.483
57.889 7.682
57.903 8.451
57.917 7.465
57.931 7.942
57.944 7.154
57.958 6.096
57.972 5.701
57.986 4.964
57.999 2.750
58.013 3.342
58.027 4.882
58.041 6.081
58.055 8.819
58.068 5.451
58.082 7.839
58.096 8.019
58.110 5.043
58.123 6.933
58.137 5.033
58.151 8.606
58.165 7.053
58.178 2.904
58.192 5.992
58.206 9.387
58.220 5.232
58.233 6.674
58.247 6.908
58.261 3.316
58.275 6.851
58.288 2.526
58.302 4.287
58.316 8.173
58.330 6.549
58.343 5.057
58.357 6.780
58.371 5.640
58.385 5.820
58.398 7.301
58.412 4.165
58.426 5.928
58.440 5.141
58.453 2.259
58.467 3.790
58.481 9.474
58.495 6.797
58.508 2.926
58.522 2.451
58.536 5.722
58.550 9.553
58.563 5.594
58.577 9.016
58.591 6.863
58.605 7.158
58.618 3.067
58.632 8.267
58.646 5.395
58.660 8.148
58.673 4.356
58.687 6.640
58.701 7.067
58.715 5.944
58.728 7.246
58.742 5.750
58.756 4.911
58.770 10.078
58.783 8.845
58.797 4.761
58.811 7.824
58.825 4.878
58.838 3.911
58.852 9.004
58.866 2.813
58.880 8.847
58.893 6.208
58.907 6.349
58.921 7.814
58.935 8.256
58.948 5.104
58.962 8.676
58.976 7.358
58.990 4.300
59.004 6.836
59.017 10.433
59.031 11.174
59.045 9.061
59.059 4.792
59.072 8.696
59.086 9.597
59.100 9.397
59.114 9.620
59.127 8.753
59.141 7.858
59.155 6.739
59.169 3.909
59.182 9.115
59.196 8.883
59.210 9.852
59.224 5.667
59.237 10.317
59.251 13.669
59.265 9.322
59.279 9.162
59.292 10.174
59.306 14.276
59.320 7.506
59.334 10.499
59.347 8.427
59.361 9.227
59.375 10.597
59.389 14.031
59.402 15.333
59.416 12.541
59.430 10.970
59.444 17.830
59.457 11.532
59.471 11.581
59.485 9.245
59.499 16.899
59.512 16.395
59.526 20.203
59.540 12.086
59.554 19.172
59.567 16.673
59.581 19.079
59.595 14.308
59.609 22.320
59.622 21.816
59.636 21.145
59.650 24.116
59.664 22.577
59.677 25.004
59.691 27.687
59.705 27.465
59.719 37.233
59.732 42.361
59.746 43.377
59.760 52.210
59.774 58.547
59.787 69.091
59.801 77.707
59.815 89.626
59.829 108.296
59.842 121.758
59.856 144.140
59.870 158.684
59.884 176.588
59.897 202.220
59.911 221.616
59.925 241.905
59.939 261.547
59.952 273.596
59.966 287.849
59.980 296.861
59.994 298.909
60.008 301.026
60.021 299.643
60.035 287.642
60.049 270.656
60.063 253.683
60.076 242.259
60.090 218.097
60.104 196.049
60.118 176.201
60.131 153.423
60.145 141.098
60.159 119.471
60.173 107.630
60.186 90.531
60.200 81.324
60.214 68.010
60.228 60.314
60.241 52.398
60.255 45.844
60.269 39.984
60.283 34.361
60.296 35.728
60.310 26.412
60.324 26.108
60.338 24.161
60.351 23.396
60.365 20.108
60.379 20.609
60.393 18.472
60.406 14.346
60.420 17.161
60.434 13.908
60.448 11.809
60.461 15.471
60.475 15.721
60.489 15.304
60.503 14.929
60.516 8.805
60.530 9.703
60.544 16.921
60.558 9.693
60.571 13.141
60.585 9.880
60.599 11.339
60.613 9.446
60.626 11.914
60.640 10.709
60.654 9.152
60.668 7.571
60.681 10.372
60.695 6.812
60.709 10.369
60.723 15.207
60.736 12.141
60.750 10.550
60.764 8.576
60.778 4.220
60.791 5.493
60.805 11.301
60.819 6.464
60.833 6.558
60.846 7.665
60.860 5.522
60.874 5.049
60.888 7.634
60.901 5.630
60.915 5.887
60.929 5.714
60.943 8.603
60.956 6.810
60.970 6.860
60.984 8.557
60.998 6.808
61.012 6.433
61.025 8.077
61.039 8.468
61.053 6.555
61.067 7.018
61.080 5.002
61.094 4.772
61.108 8.434
61.122 7.648
61.135 7.626
61.149 7.185
61.163 6.608
61.177 8.047
61.190 8.551
61.204 8.458
61.218 6.117
61.232 9.469
61.245 6.796
61.259 7.682
61.273 6.852
61.287 6.740
61.300 4.472
61.314 7.714
61.328 12.567
61.342 5.208
61.355 6.195
61.369 4.991
61.383 4.871
61.397 9.473
61.410 4.401
61.424 4.830
61.438 2.272
61.452 4.139
61.465 1.953
61.479 7.260
61.493 12.176
61.507 4.947
61.520 1.967
61.534 7.792
61.548 4.070
61.562 8.665
61.575 5.047
61.589 4.234
61.603 5.251
61.617 7.365
61.630 5.106
61.644 4.477
61.658 5.141
61.672 2.683
61.685 6.468
61.699 1.482
61.713 4.525
61.727 7.252
61.740 6.200
61.754 6.842
61.768 5.337
61.782 8.136
61.795 7.566
61.809 6.465
61.823 7.550
61.837 7.135
61.850 4.415
61.864 2.345
61.878 6.352
61.892 6.628
61.905 7.857
61.919 3.233
61.933 3.291
61.947 6.393
61.960 5.174
61.974 1.034
61.988 6.173
62.002 1.092
62.016 3.149
62.029 8.370
62.043 9.440
62.057 2.509
62.071 4.519
62.084 5.358
62.098 9.309
62.112 4.124
62.126 4.153
62.139 8.758
62.153 4.371
62.167 6.862
62.181 1.848
62.194 4.814
62.208 1.419
62.222 2.788
62.236 7.096
62.249 5.065
62.263 4.446
62.277 3.462
62.291 4.658
62.304 5.841
62.318 7.387
62.332 0.000
62.346 3.245
62.359 5.495
62.373 4.903
62.387 6.041
62.401 5.726
62.414 4.418
62.428 3.908
62.442 4.543
62.456 7.713
62.469 3.426
62.483 4.945
62.497 5.501
62.511 8.632
62.524 4.391
62.538 7.253
62.552 7.871
62.566 4.916
62.579 4.578
62.593 4.304
62.607 4.467
62.621 6.990
62.634 5.567
62.648 5.573
62.662 2.472
62.676 2.827
62.689 9.906
62.703 4.617
62.717 3.255
62.731 8.274
62.744 5.653
62.758 6.325
62.772 4.690
62.786 4.276
62.799 4.612
62.813 1.847
62.827 4.791
62.841 5.662
62.854 9.198
62.868 5.178
62.882 0.000
62.896 4.762
62.909 11.210
62.923 6.943
62.937 3.121
62.951 6.310
62.964 3.272
62.978 1.876
62.992 4.163
63.006 5.162
63.020 0.688
63.033 2.332
63.047 4.969
63.061 4.013
63.075 5.839
63.088 2.172
63.102 6.561
63.116 2.238
63.130 8.670
63.143 1.021
63.157 2.438
63.171 5.873
63.185 8.710
63.198 5.636
63.212 6.198
63.226 4.954
63.240 2.575
63.253 3.794
63.267 2.148
63.281 1.994
63.295 5.818
63.308 2.344
63.322 5.627
63.336 1.933
63.350 5.570
63.363 3.780
63.377 8.094
63.391 5.626
63.405 7.701
63.418 3.165
63.432 5.011
63.446 2.648
63.460 3.938
63.473 4.281
63.487 3.223
63.501 2.107
63.515 1.654
63.528 0.000
63.542 2.464
63.556 6.296
63.570 1.226
63.583 1.749
63.597 8.940
63.611 3.412
63.625 5.590
63.638 6.320
63.652 6.364
63.666 1.388
63.680 4.327
63.693 1.167
63.707 10.419
63.721 1.217
63.735 2.461
63.748 2.476
63.762 1.436
63.776 7.922
63.790 10.356
63.803 3.756
63.817 1.832
63.831 0.000
63.845 4.279
63.858 4.114
63.872 3.350
63.886 5.335
63.900 5.730
63.913 5.564
63.927 4.107
63.941 2.318
63.955 6.341
63.968 4.852
63.982 6.845
63.996 6.620
64.010 1.582
64.024 1.553
64.037 3.097
64.051 2.411
64.065 6.534
64.079 5.613
64.092 7.315
64.106 5.714
64.120 5.285
64.134 7.540
64.147 5.877
64.161 4.962
64.175 8.176
64.189 5.067
64.202 4.110
64.216 2.895
64.230 6.402
64.244 7.617
64.257 4.684
64.271 7.776
64.285 0.312
64.299 4.670
64.312 4.704
64.326 3.139
64.340 10.220
64.354 4.641
64.367 3.863
64.381 4.849
64.395 0.229
64.409 3.058
64.422 7.026
64.436 3.354
64.450 2.898
64.464 7.766
64.477 7.835
64.491 5.959
64.505 3.745
64.519 4.235
64.532 2.949
64.546 2.514
64.560 2.400
64.574 3.370
64.587 2.420
64.601 1.215
64.615 5.274
64.629 5.308
64.642 8.645
64.656 3.250
64.670 5.445
64.684 5.482
64.697 4.191
64.711 6.463
64.725 6.533
64.739 5.512
64.752 4.184
64.766 3.951
64.780 1.650
64.794 2.929
64.807 3.347
64.821 2.203
64.835 5.763
64.849 7.485
64.862 2.692
64.876 5.404
64.890 2.404
64.904 4.063
64.917 3.185
64.931 6.127
64.945 3.210
64.959 7.058
64.972 4.195
64.986 3.274
65.000 1.899
