30.000 16.688
30.014 13.610
30.028 17.672
30.041 18.089
30.055 11.488
30.069 12.950
30.083 16.192
30.096 15.165
30.110 15.832
30.124 13.912
30.138 17.842
30.151 17.595
30.165 15.959
30.179 18.360
30.193 16.843
30.206 13.806
30.220 16.587
30.234 13.548
30.248 17.718
30.261 15.588
30.275 15.266
30.289 14.121
30.303 18.441
30.316 15.289
30.330 14.651
30.344 14.809
30.358 16.809
30.371 16.414
30.385 16.506
30.399 16.533
30.413 20.414
30.426 14.596
30.440 14.340
30.454 13.638
30.468 16.880
30.481 18.033
30.495 15.188
30.509 13.519
30.523 13.540
30.536 16.885
30.550 17.081
30.564 16.611
30.578 13.843
30.591 15.873
30.605 15.595
30.619 15.813
30.633 17.285
30.646 15.795
30.660 16.817
30.674 15.410
30.688 15.901
30.701 16.665
30.715 11.894
30.729 14.471
30.743 14.113
30.756 13.715
30.770 14.529
30.784 18.546
30.798 13.155
30.811 17.318
30.825 11.265
30.839 14.321
30.853 15.440
30.866 16.390
30.880 16.661
30.894 16.834
30.908 14.218
30.921 13.945
30.935 16.938
30.949 14.534
30.963 12.050
30.976 12.361
30.990 12.834
31.004 16.046
31.018 15.224
31.032 16.458
31.045 13.899
31.059 15.219
31.073 16.268
31.087 14.125
31.100 15.856
31.114 13.294
31.128 13.961
31.142 13.905
31.155 12.037
31.169 15.856
31.183 13.664
31.197 14.747
31.210 15.800
31.224 15.708
31.238 16.193
31.252 14.440
31.265 13.686
31.279 14.455
31.293 10.780
31.307 11.314
31.320 11.583
31.334 12.311
31.348 15.479
31.362 12.493
31.375 13.680
31.389 17.487
31.403 13.703
31.417 16.181
31.430 12.361
31.444 14.006
31.458 12.297
31.472 13.675
31.485 16.348
31.499 10.487
31.513 15.397
31.527 14.935
31.540 13.027
31.554 11.074
31.568 14.518
31.582 13.135
31.595 14.858
31.609 14.364
31.623 17.949
31.637 13.743
31.650 11.944
31.664 14.670
31.678 14.750
31.692 17.331
31.705 16.124
31.719 15.022
31.733 17.529
31.747 11.476
31.760 12.713
31.774 12.047
31.788 13.257
31.802 10.996
31.815 15.565
31.829 13.600
31.843 10.743
31.857 11.767
31.870 14.781
31.884 15.963
31.898 18.589
31.912 20.665
31.925 14.960
31.939 11.749
31.953 9.134
31.967 14.587
31.980 12.113
31.994 13.006
32.008 12.545
32.022 13.606
32.036 16.342
32.049 14.259
32.063 13.528
32.077 11.518
32.091 10.050
32.104 12.744
32.118 13.716
32.132 17.853
32.146 14.110
32.159 16.040
32.173 12.652
32.187 11.078
32.201 11.566
32.214 12.100
32.228 18.587
32.242 11.856
32.256 15.624
32.269 11.646
32.283 15.812
32.297 14.554
32.311 13.309
32.324 13.560
32.338 12.149
32.352 14.644
32.366 12.580
32.379 10.813
32.393 10.681
32.407 13.973
32.421 17.164
32.434 13.920
32.448 13.273
32.462 14.182
32.476 16.494
32.489 14.007
32.503 12.559
32.517 16.003
32.531 14.448
32.544 16.957
32.558 13.865
32.572 10.647
32.586 10.307
32.599 17.172
32.613 17.325
32.627 12.979
32.641 12.503
32.654 16.692
32.668 10.831
32.682 11.303
32.696 14.794
32.709 12.418
32.723 13.293
32.737 12.921
32.751 14.050
32.764 16.475
32.778 13.464
32.792 14.713
32.806 8.566
32.819 13.112
32.833 11.291
32.847 10.424
32.861 11.188
32.874 12.416
32.888 15.251
32.902 10.133
32.916 13.212
32.929 12.028
32.943 12.373
32.957 15.392
32.971 14.322
32.984 16.131
32.998 12.722
33.012 11.477
33.026 12.541
33.040 13.592
33.053 13.430
33.067 10.547
33.081 13.211
33.095 13.514
33.108 18.716
33.122 17.246
33.136 11.017
33.150 12.294
33.163 9.605
33.177 11.581
33.191 13.634
33.205 15.651
33.218 11.232
33.232 11.392
33.246 7.980
33.260 12.489
33.273 10.429
33.287 11.632
33.301 10.829
33.315 12.601
33.328 8.801
33.342 9.452
33.356 17.632
33.370 9.839
33.383 10.262
33.397 16.933
33.411 19.355
33.425 10.059
33.438 11.878
33.452 13.484
33.466 16.632
33.480 10.437
33.493 12.115
33.507 14.433
33.521 13.642
33.535 11.784
33.548 12.325
33.562 9.488
33.576 12.066
33.590 11.991
33.603 13.116
33.617 11.312
33.631 13.640
33.645 14.862
33.658 12.899
33.672 13.335
33.686 12.644
33.700 12.513
33.713 10.859
33.727 13.212
33.741 12.260
33.755 17.238
33.768 16.043
33.782 13.328
33.796 10.701
33.810 9.895
33.823 15.131
33.837 13.006
33.851 13.491
33.865 8.414
33.878 14.489
33.892 13.401
33.906 9.827
33.920 11.272
33.933 12.936
33.947 12.444
33.961 11.649
33.975 12.069
33.988 11.720
34.002 12.631
34.016 15.625
34.030 6.418
34.044 11.714
34.057 12.645
34.071 12.907
34.085 11.376
34.099 8.211
34.112 12.949
34.126 16.126
34.140 8.689
34.154 14.139
34.167 11.414
34.181 12.012
34.195 9.744
34.209 11.370
34.222 15.083
34.236 13.439
34.250 16.047
34.264 14.774
34.277 13.082
34.291 16.044
34.305 13.062
34.319 13.938
34.332 11.367
34.346 12.184
34.360 10.434
34.374 14.267
34.387 9.319
34.401 13.775
34.415 11.549
34.429 14.641
34.442 13.674
34.456 16.101
34.470 13.609
34.484 8.354
34.497 11.773
34.511 9.246
34.525 10.725
34.539 15.338
34.552 13.338
34.566 10.285
34.580 9.558
34.594 11.932
34.607 9.077
34.621 10.310
34.635 12.540
34.649 14.451
34.662 13.196
34.676 6.582
34.690 12.484
34.704 11.945
34.717 12.715
34.731 15.443
34.745 7.054
34.759 10.397
34.772 13.080
34.786 8.123
34.800 15.077
34.814 12.545
34.827 13.625
34.841 10.387
34.855 13.532
34.869 14.102
34.882 12.190
34.896 12.184
34.910 12.257
34.924 9.666
34.937 11.287
34.951 11.266
34.965 12.477
34.979 13.872
34.992 9.175
35.006 11.292
35.020 14.942
35.034 9.865
35.048 9.677
35.061 12.001
35.075 13.454
35.089 11.548
35.103 14.540
35.116 13.455
35.130 13.412
35.144 12.748
35.158 16.778
35.171 11.001
35.185 6.896
35.199 15.104
35.213 10.399
35.226 11.678
35.240 14.406
35.254 7.765
35.268 8.555
35.281 7.750
35.295 9.579
35.309 12.380
35.323 12.564
35.336 11.991
35.350 8.135
35.364 6.083
35.378 11.459
35.391 10.252
35.405 12.364
35.419 12.908
35.433 11.615
35.446 13.023
35.460 11.805
35.474 12.482
35.488 9.661
35.501 10.848
35.515 11.697
35.529 13.109
35.543 10.334
35.556 12.410
35.570 10.609
35.584 10.938
35.598 13.086
35.611 6.649
35.625 8.227
35.639 7.796
35.653 5.848
35.666 9.610
35.680 12.853
35.694 10.489
35.708 11.580
35.721 13.602
35.735 14.136
35.749 10.947
35.763 14.179
35.776 11.297
35.790 9.172
35.804 9.717
35.818 7.691
35.831 9.032
35.845 10.231
35.859 12.868
35.873 14.949
35.886 7.873
35.900 11.908
35.914 8.635
35.928 12.078
35.941 10.690
35.955 6.810
35.969 13.087
35.983 9.586
35.996 9.740
36.010 8.512
36.024 9.450
36.038 11.906
36.052 10.493
36.065 11.664
36.079 11.732
36.093 13.908
36.107 10.111
36.120 7.520
36.134 13.306
36.148 10.113
36.162 13.398
36.175 11.725
36.189 10.545
36.203 11.631
36.217 15.272
36.230 15.551
36.244 10.971
36.258 11.170
36.272 13.248
36.285 8.863
36.299 11.540
36.313 10.715
36.327 11.481
36.340 8.860
36.354 7.130
36.368 6.021
36.382 8.190
36.395 9.683
36.409 10.052
36.423 15.124
36.437 13.223
36.450 8.505
36.464 11.481
36.478 9.754
36.492 10.026
36.505 11.088
36.519 12.069
36.533 9.878
36.547 13.067
36.560 8.035
36.574 10.643
36.588 16.537
36.602 11.122
36.615 13.870
36.629 10.807
36.643 11.914
36.657 10.455
36.670 10.188
36.684 8.794
36.698 11.542
36.712 8.615
36.725 12.063
36.739 13.012
36.753 11.367
36.767 9.873
36.780 11.552
36.794 9.808
36.808 12.634
36.822 6.325
36.835 9.725
36.849 5.948
36.863 7.069
36.877 13.574
36.890 12.499
36.904 8.814
36.918 7.024
36.932 3.687
36.945 9.194
36.959 15.937
36.973 11.408
36.987 9.136
37.001 11.463
37.014 6.841
37.028 9.712
37.042 10.609
37.056 10.179
37.069 12.170
37.083 11.146
37.097 11.877
37.111 8.780
37.124 12.386
37.138 14.044
37.152 8.117
37.166 8.298
37.179 13.356
37.193 9.871
37.207 13.497
37.221 9.285
37.234 13.600
37.248 10.579
37.262 10.861
37.276 13.830
37.289 9.435
37.303 8.109
37.317 9.224
37.331 11.269
37.344 6.666
37.358 11.678
37.372 8.992
37.386 12.827
37.399 4.753
37.413 8.408
37.427 6.352
37.441 8.305
37.454 10.744
37.468 9.765
37.482 9.590
37.496 9.798
37.509 10.617
37.523 7.850
37.537 11.751
37.551 11.644
37.564 11.005
37.578 11.389
37.592 10.791
37.606 14.744
37.619 9.904
37.633 9.397
37.647 8.374
37.661 7.733
37.674 7.243
37.688 8.047
37.702 9.904
37.716 10.820
37.729 10.169
37.743 8.303
37.757 12.091
37.771 11.718
37.784 9.664
37.798 8.535
37.812 11.265
37.826 10.438
37.839 6.706
37.853 9.843
37.867 10.588
37.881 7.937
37.894 10.412
37.908 6.660
37.922 13.011
37.936 12.804
37.949 9.381
37.963 10.778
37.977 4.455
37.991 7.305
38.005 9.263
38.018 7.485
38.032 11.548
38.046 14.464
38.060 7.229
38.073 7.996
38.087 10.434
38.101 13.561
38.115 7.102
38.128 10.448
38.142 14.023
38.156 6.107
38.170 6.946
38.183 8.893
38.197 8.667
38.211 11.697
38.225 10.392
38.238 5.793
38.252 11.004
38.266 8.509
38.280 12.722
38.293 8.384
38.307 8.358
38.321 11.035
38.335 11.535
38.348 10.813
38.362 5.948
38.376 11.007
38.390 7.420
38.403 10.307
38.417 6.523
38.431 10.777
38.445 7.918
38.458 6.828
38.472 11.370
38.486 10.290
38.500 8.336
38.513 13.034
38.527 8.720
38.541 9.792
38.555 10.326
38.568 8.297
38.582 10.777
38.596 8.484
38.610 8.756
38.623 12.792
38.637 7.314
38.651 4.184
38.665 13.343
38.678 15.475
38.692 8.741
38.706 5.248
38.720 8.948
38.733 8.998
38.747 9.213
38.761 7.105
38.775 10.956
38.788 10.826
38.802 6.223
38.816 11.214
38.830 14.292
38.843 10.004
38.857 8.840
38.871 9.280
38.885 11.000
38.898 5.653
38.912 9.964
38.926 8.696
38.940 13.790
38.953 9.180
38.967 13.371
38.981 7.054
38.995 10.901
39.009 10.287
39.022 7.576
39.036 9.955
39.050 12.308
39.064 8.805
39.077 5.685
39.091 9.494
39.105 7.475
39.119 8.746
39.132 9.336
39.146 5.633
39.160 5.834
39.174 10.608
39.187 8.316
39.201 3.661
39.215 11.286
39.229 10.115
39.242 7.865
39.256 6.488
39.270 11.387
39.284 10.275
39.297 14.902
39.311 10.429
39.325 10.351
39.339 9.085
39.352 11.321
39.366 10.881
39.380 12.305
39.394 8.263
39.407 8.456
39.421 8.353
39.435 11.242
39.449 12.850
39.462 8.389
39.476 8.463
39.490 10.143
39.504 8.865
39.517 11.589
39.531 4.289
39.545 7.532
39.559 7.630
39.572 4.124
39.586 7.211
39.600 7.319
39.614 8.942
39.627 11.932
39.641 8.836
39.655 7.044
39.669 9.259
39.682 11.776
39.696 7.161
39.710 7.307
39.724 10.650
39.737 8.871
39.751 10.848
39.765 9.340
39.779 10.966
39.792 7.009
39.806 9.336
39.820 8.882
39.834 6.590
39.847 5.796
39.861 10.917
39.875 8.553
39.889 7.022
39.902 9.130
39.916 11.916
39.930 4.150
39.944 5.934
39.957 7.239
39.971 12.667
39.985 9.981
39.999 11.084
40.013 6.738
40.026 6.783
40.040 10.351
40.054 9.463
40.068 10.578
40.081 8.900
40.095 9.960
40.109 9.685
40.123 11.095
40.136 11.161
40.150 5.632
40.164 4.202
40.178 11.601
40.191 12.024
40.205 6.993
40.219 5.081
40.233 9.542
40.246 11.436
40.260 13.410
40.274 10.491
40.288 8.468
40.301 7.280
40.315 9.340
40.329 8.632
40.343 7.002
40.356 13.980
40.370 13.379
40.384 11.901
40.398 7.217
40.411 11.262
40.425 10.771
40.439 10.323
40.453 12.162
40.466 10.763
40.480 11.002
40.494 10.768
40.508 10.094
40.521 5.257
40.535 9.510
40.549 8.054
40.563 6.407
40.576 13.154
40.590 13.263
40.604 12.422
40.618 9.909
40.631 12.406
40.645 9.359
40.659 9.795
40.673 6.845
40.686 10.241
40.700 9.477
40.714 6.375
40.728 9.227
40.741 9.165
40.755 13.443
40.769 11.388
40.783 9.381
40.796 9.924
40.810 9.461
40.824 8.902
40.838 6.902
40.851 9.026
40.865 7.675
40.879 6.530
40.893 10.546
40.906 10.277
40.920 5.320
40.934 9.114
40.948 11.666
40.961 11.815
40.975 11.744
40.989 9.501
41.003 7.493
41.017 6.954
41.030 10.213
41.044 10.297
41.058 12.371
41.072 11.950
41.085 9.149
41.099 6.623
41.113 8.736
41.127 9.964
41.140 9.016
41.154 8.167
41.168 10.066
41.182 8.350
41.195 8.075
41.209 10.222
41.223 8.605
41.237 10.085
41.250 10.159
41.264 6.951
41.278 8.459
41.292 12.838
41.305 6.926
41.319 4.762
41.333 5.352
41.347 9.668
41.360 9.683
41.374 9.355
41.388 12.399
41.402 3.557
41.415 10.558
41.429 13.224
41.443 7.111
41.457 8.827
41.470 7.990
41.484 7.681
41.498 8.988
41.512 12.995
41.525 13.943
41.539 9.007
41.553 14.126
41.567 9.883
41.580 13.811
41.594 9.620
41.608 10.148
41.622 10.698
41.635 17.122
41.649 11.839
41.663 8.307
41.677 12.143
41.690 9.130
41.704 8.858
41.718 12.063
41.732 10.084
41.745 10.668
41.759 10.087
41.773 10.843
41.787 11.067
41.800 5.710
41.814 11.663
41.828 7.932
41.842 6.909
41.855 10.086
41.869 10.436
41.883 8.691
41.897 12.191
41.910 7.269
41.924 9.428
41.938 9.052
41.952 10.308
41.965 11.080
41.979 8.181
41.993 12.158
42.007 10.686
42.021 6.267
42.034 6.151
42.048 10.620
42.062 10.181
42.076 10.487
42.089 10.698
42.103 11.316
42.117 13.001
42.131 8.355
42.144 8.260
42.158 8.484
42.172 11.678
42.186 13.902
42.199 10.133
42.213 5.468
42.227 7.336
42.241 9.372
42.254 10.054
42.268 10.450
42.282 11.525
42.296 10.787
42.309 13.948
42.323 10.081
42.337 9.721
42.351 12.843
42.364 8.323
42.378 12.779
42.392 12.198
42.406 11.704
42.419 15.735
42.433 10.781
42.447 16.973
42.461 11.852
42.474 9.546
42.488 12.704
42.502 10.188
42.516 11.024
42.529 13.741
42.543 14.206
42.557 11.631
42.571 15.407
42.584 15.910
42.598 16.664
42.612 14.721
42.626 16.748
42.639 9.492
42.653 13.188
42.667 12.080
42.681 14.473
42.694 13.053
42.708 14.135
42.722 18.965
42.736 14.463
42.749 15.970
42.763 14.684
42.777 15.578
42.791 15.620
42.804 16.836
42.818 18.687
42.832 20.012
42.846 17.202
42.859 18.086
42.873 14.380
42.887 17.070
42.901 19.694
42.914 19.819
42.928 18.637
42.942 20.496
42.956 19.933
42.969 21.904
42.983 20.201
42.997 19.123
43.011 21.108
43.025 14.101
43.038 22.102
43.052 13.399
43.066 18.288
43.080 23.775
43.093 24.395
43.107 21.255
43.121 22.909
43.135 28.318
43.148 24.800
43.162 31.760
43.176 27.443
43.190 29.223
43.203 32.878
43.217 30.455
43.231 28.899
43.245 32.029
43.258 33.371
43.272 31.603
43.286 35.481
43.300 35.830
43.313 41.197
43.327 40.872
43.341 41.998
43.355 44.419
43.368 47.387
43.382 50.737
43.396 49.793
43.410 52.786
43.423 61.197
43.437 61.813
43.451 64.289
43.465 74.172
43.478 80.979
43.492 84.612
43.506 98.561
43.520 111.841
43.533 125.812
43.547 144.392
43.561 161.516
43.575 191.576
43.588 221.134
43.602 257.094
43.616 302.263
43.630 351.611
43.643 406.079
43.657 464.130
43.671 524.670
43.685 592.997
43.698 663.134
43.712 730.785
43.726 797.475
43.740 860.579
43.753 912.089
43.767 953.266
43.781 983.377
43.795 1000.000
43.808 996.701
43.822 979.634
43.836 947.744
43.850 899.939
43.863 846.898
43.877 783.079
43.891 711.938
43.905 648.693
43.918 575.345
43.932 506.110
43.946 444.684
43.960 386.771
43.973 336.761
43.987 289.397
44.001 248.492
44.015 215.559
44.029 185.079
44.042 159.956
44.056 139.314
44.070 122.566
44.084 102.217
44.097 94.595
44.111 80.950
44.125 78.169
44.139 71.586
44.152 68.546
44.166 64.272
44.180 58.088
44.194 53.065
44.207 52.301
44.221 47.318
44.235 46.114
44.249 46.187
44.262 40.685
44.276 41.970
44.290 40.000
44.304 34.731
44.317 37.685
44.331 35.721
44.345 33.116
44.359 29.984
44.372 28.677
44.386 28.391
44.400 29.897
44.414 25.589
44.427 27.920
44.441 23.303
44.455 24.921
44.469 24.931
44.482 29.586
44.496 20.252
44.510 26.147
44.524 22.573
44.537 22.635
44.551 21.462
44.565 21.725
44.579 19.906
44.592 23.133
44.606 18.369
44.620 21.593
44.634 17.172
44.647 18.144
44.661 15.498
44.675 18.649
44.689 20.592
44.702 16.825
44.716 16.267
44.730 13.903
44.744 15.657
44.757 12.299
44.771 13.606
44.785 15.970
44.799 18.234
44.812 21.414
44.826 13.474
44.840 17.880
44.854 14.976
44.867 13.892
44.881 15.044
44.895 14.029
44.909 13.975
44.922 12.635
44.936 10.227
44.950 9.747
44.964 14.607
44.977 12.351
44.991 11.490
45.005 12.737
45.019 14.403
45.033 12.882
45.046 10.859
45.060 15.033
45.074 15.726
45.088 13.149
45.101 14.136
45.115 14.647
45.129 14.294
45.143 13.024
45.156 12.896
45.170 12.627
45.184 8.858
45.198 12.868
45.211 8.102
45.225 9.301
45.239 14.002
45.253 12.871
45.266 14.271
45.280 10.193
45.294 8.118
45.308 10.127
45.321 10.840
45.335 10.723
45.349 13.063
45.363 9.596
45.376 11.161
45.390 8.049
45.404 11.270
45.418 10.196
45.431 8.426
45.445 9.544
45.459 9.610
45.473 9.364
45.486 13.964
45.500 9.657
45.514 9.279
45.528 5.011
45.541 7.706
45.555 9.100
45.569 8.093
45.583 12.760
45.596 9.196
45.610 12.466
45.624 9.633
45.638 9.538
45.651 9.213
45.665 9.387
45.679 13.256
45.693 4.023
45.706 4.712
45.720 8.000
45.734 9.236
45.748 10.742
45.761 10.215
45.775 8.231
45.789 11.396
45.803 11.391
45.816 9.434
45.830 11.178
45.844 9.578
45.858 7.650
45.871 10.490
45.885 9.125
45.899 8.850
45.913 12.175
45.926 3.213
45.940 5.540
45.954 6.041
45.968 7.893
45.981 8.116
45.995 5.239
46.009 6.405
46.023 6.666
46.037 14.201
46.050 12.685
46.064 7.622
46.078 7.711
46.092 5.900
46.105 4.151
46.119 8.210
46.133 6.184
46.147 8.244
46.160 4.773
46.174 6.663
46.188 8.718
46.202 9.195
46.215 9.294
46.229 5.318
46.243 10.254
46.257 6.468
46.270 9.714
46.284 8.232
46.298 5.105
46.312 7.503
46.325 9.039
46.339 9.587
46.353 7.855
46.367 11.649
46.380 10.440
46.394 7.546
46.408 9.824
46.422 12.505
46.435 12.552
46.449 5.276
46.463 5.948
46.477 11.427
46.490 5.621
46.504 5.006
46.518 6.898
46.532 8.949
46.545 7.746
46.559 6.485
46.573 6.419
46.587 6.320
46.600 5.927
46.614 13.114
46.628 8.584
46.642 9.914
46.655 6.769
46.669 7.448
46.683 6.235
46.697 1.810
46.710 4.700
46.724 3.704
46.738 2.693
46.752 5.084
46.765 10.814
46.779 7.685
46.793 10.716
46.807 8.702
46.820 9.539
46.834 5.695
46.848 8.931
46.862 9.388
46.875 6.406
46.889 8.984
46.903 8.990
46.917 6.440
46.930 5.126
46.944 4.977
46.958 7.863
46.972 8.402
46.985 5.844
46.999 7.701
47.013 8.932
47.027 9.032
47.041 11.151
47.054 10.517
47.068 5.321
47.082 11.428
47.096 6.377
47.109 9.958
47.123 7.726
47.137 6.625
47.151 3.440
47.164 7.159
47.178 3.991
47.192 9.739
47.206 10.984
47.219 5.708
47.233 8.204
47.247 5.858
47.261 6.072
47.274 9.261
47.288 7.403
47.302 11.447
47.316 6.380
47.329 9.749
47.343 7.689
47.357 9.274
47.371 6.437
47.384 7.337
47.398 7.181
47.412 5.535
47.426 8.942
47.439 8.909
47.453 8.775
47.467 10.919
47.481 10.714
47.494 6.554
47.508 8.253
47.522 5.978
47.536 7.447
47.549 6.023
47.563 11.075
47.577 8.209
47.591 6.879
47.604 10.090
47.618 2.424
47.632 2.776
47.646 9.172
47.659 7.493
47.673 7.922
47.687 4.327
47.701 7.291
47.714 11.903
47.728 9.214
47.742 7.720
47.756 6.330
47.769 6.428
47.783 2.474
47.797 7.907
47.811 9.243
47.824 3.726
47.838 5.805
47.852 4.672
47.866 5.107
47.879 7.425
47.893 2.553
47.907 8.697
47.921 9.012
47.934 6.721
47.948 1.641
47.962 5.019
47.976 10.095
47.989 0.958
48.003 6.491
48.017 4.594
48.031 9.112
48.045 5.740
48.058 8.196
48.072 8.563
48.086 11.455
48.100 6.810
48.113 8.127
48.127 3.888
48.141 9.980
48.155 5.536
48.168 5.990
48.182 7.216
48.196 3.706
48.210 7.786
48.223 9.468
48.237 7.932
48.251 3.646
48.265 6.982
48.278 8.954
48.292 2.987
48.306 4.817
48.320 9.262
48.333 7.881
48.347 8.205
48.361 11.502
48.375 8.335
48.388 8.767
48.402 13.444
48.416 6.784
48.430 5.455
48.443 8.248
48.457 8.275
48.471 6.078
48.485 4.928
48.498 12.542
48.512 8.028
48.526 5.618
48.540 9.374
48.553 7.042
48.567 6.717
48.581 8.577
48.595 4.357
48.608 8.106
48.622 11.663
48.636 8.371
48.650 6.456
48.663 6.162
48.677 6.387
48.691 6.747
48.705 6.469
48.718 9.421
48.732 3.392
48.746 9.308
48.760 6.485
48.773 8.214
48.787 4.794
48.801 10.393
48.815 10.210
48.828 9.565
48.842 3.936
48.856 9.281
48.870 8.322
48.883 3.751
48.897 7.359
48.911 8.253
48.925 8.697
48.938 7.843
48.952 8.111
48.966 10.813
48.980 10.259
48.993 0.946
49.007 6.763
49.021 7.121
49.035 3.517
49.049 7.733
49.062 10.374
49.076 5.067
49.090 8.320
49.104 5.480
49.117 6.049
49.131 10.957
49.145 6.371
49.159 8.673
49.172 3.374
49.186 11.892
49.200 9.039
49.214 7.267
49.227 9.010
49.241 4.506
49.255 10.428
49.269 7.016
49.282 7.308
49.296 6.673
49.310 6.490
49.324 9.416
49.337 8.439
49.351 9.363
49.365 7.882
49.379 9.095
49.392 6.997
49.406 13.055
49.420 4.432
49.434 10.903
49.447 11.175
49.461 6.148
49.475 13.196
49.489 10.418
49.502 10.395
49.516 8.281
49.530 7.758
49.544 7.812
49.557 9.216
49.571 11.557
49.585 8.819
49.599 6.372
49.612 10.369
49.626 10.634
49.640 10.074
49.654 10.330
49.667 8.065
49.681 6.619
49.695 6.812
49.709 5.121
49.722 9.444
49.736 8.776
49.750 8.028
49.764 2.365
49.777 6.324
49.791 11.790
49.805 7.799
49.819 10.212
49.832 6.305
49.846 12.835
49.860 9.319
49.874 10.401
49.887 15.135
49.901 13.393
49.915 9.348
49.929 8.807
49.942 9.533
49.956 11.559
49.970 10.287
49.984 9.761
49.997 14.145
50.011 10.693
50.025 16.348
50.039 11.482
50.053 15.516
50.066 12.448
50.080 14.022
50.094 10.384
50.108 10.306
50.121 13.528
50.135 14.976
50.149 13.074
50.163 10.326
50.176 10.449
50.190 10.607
50.204 10.162
50.218 14.789
50.231 17.478
50.245 15.287
50.259 10.600
50.273 15.775
50.286 16.335
50.300 22.014
50.314 14.498
50.328 17.552
50.341 23.006
50.355 20.888
50.369 21.962
50.383 21.842
50.396 23.340
50.410 25.497
50.424 23.181
50.438 28.525
50.451 25.155
50.465 31.114
50.479 33.271
50.493 34.480
50.506 39.505
50.520 42.620
50.534 47.064
50.548 55.349
50.561 61.679
50.575 74.571
50.589 82.661
50.603 100.323
50.616 111.533
50.630 130.613
50.644 150.281
50.658 176.493
50.671 197.690
50.685 221.180
50.699 248.204
50.713 267.619
50.726 296.735
50.740 323.873
50.754 339.139
50.768 354.500
50.781 366.188
50.795 371.992
50.809 364.502
50.823 358.466
50.836 350.610
50.850 331.677
50.864 315.764
50.878 288.873
50.891 260.382
50.905 236.442
50.919 207.791
50.933 189.117
50.946 166.226
50.960 144.483
50.974 128.731
50.988 111.971
51.002 93.970
51.015 76.682
51.029 72.063
51.043 62.781
51.057 54.618
51.070 49.873
51.084 39.829
51.098 42.832
51.112 32.606
51.125 33.643
51.139 25.726
51.153 25.469
51.167 29.362
51.180 23.875
51.194 25.131
51.208 22.657
51.222 20.900
51.235 23.365
51.249 18.923
51.263 14.679
51.277 16.238
51.290 18.707
51.304 17.784
51.318 12.786
51.332 14.215
51.345 14.083
51.359 14.148
51.373 11.448
51.387 12.777
51.400 12.198
51.414 15.285
51.428 15.062
51.442 12.595
51.455 11.760
51.469 12.713
51.483 10.290
51.497 9.307
51.510 9.559
51.524 10.047
51.538 8.647
51.552 11.479
51.565 12.595
51.579 7.150
51.593 10.662
51.607 9.951
51.620 11.085
51.634 10.139
51.648 6.725
51.662 7.034
51.675 9.856
51.689 12.016
51.703 4.520
51.717 10.244
51.730 12.065
51.744 8.910
51.758 10.418
51.772 7.474
51.785 8.717
51.799 5.215
51.813 3.487
51.827 10.897
51.840 6.433
51.854 7.568
51.868 5.379
51.882 5.260
51.895 8.012
51.909 6.684
51.923 9.148
51.937 9.260
51.950 8.905
51.964 8.664
51.978 11.662
51.992 5.587
52.006 7.845
52.019 10.503
52.033 10.758
52.047 4.596
52.061 7.080
52.074 10.843
52.088 8.866
52.102 8.115
52.116 7.137
52.129 6.721
52.143 8.216
52.157 6.950
52.171 7.394
52.184 7.637
52.198 5.882
52.212 8.607
52.226 14.002
52.239 3.288
52.253 8.045
52.267 5.548
52.281 8.567
52.294 7.331
52.308 8.934
52.322 9.851
52.336 7.588
52.349 9.704
52.363 1.763
52.377 10.701
52.391 7.911
52.404 9.489
52.418 4.235
52.432 5.100
52.446 7.304
52.459 6.913
52.473 7.577
52.487 9.383
52.501 2.874
52.514 9.094
52.528 6.877
52.542 6.377
52.556 3.473
52.569 7.953
52.583 1.293
52.597 8.251
52.611 3.361
52.624 6.865
52.638 6.457
52.652 9.377
52.666 6.292
52.679 5.103
52.693 5.517
52.707 9.556
52.721 7.864
52.734 5.751
52.748 6.078
52.762 3.035
52.776 7.476
52.789 2.571
52.803 8.279
52.817 6.848
52.831 11.980
52.844 4.026
52.858 6.287
52.872 10.605
52.886 9.212
52.899 4.902
52.913 6.987
52.927 6.471
52.941 7.098
52.954 4.855
52.968 6.233
52.982 2.787
52.996 6.724
53.010 7.432
53.023 5.880
53.037 2.710
53.051 8.631
53.065 7.201
53.078 4.708
53.092 5.714
53.106 2.927
53.120 4.001
53.133 5.103
53.147 9.118
53.161 4.855
53.175 7.762
53.188 5.070
53.202 6.853
53.216 5.958
53.230 8.261
53.243 5.047
53.257 2.677
53.271 3.103
53.285 5.032
53.298 3.392
53.312 7.164
53.326 5.162
53.340 11.624
53.353 2.252
53.367 6.666
53.381 3.627
53.395 5.066
53.408 6.505
53.422 0.881
53.436 6.710
53.450 10.498
53.463 5.126
53.477 6.744
53.491 8.481
53.505 5.767
53.518 4.811
53.532 0.946
53.546 7.583
53.560 5.860
53.573 3.805
53.587 6.395
53.601 4.772
53.615 4.892
53.628 7.471
53.642 3.037
53.656 8.465
53.670 2.891
53.683 4.560
53.697 10.444
53.711 8.627
53.725 6.277
53.738 3.907
53.752 4.839
53.766 6.206
53.780 6.120
53.793 5.823
53.807 5.955
53.821 5.532
53.835 2.732
53.848 4.835
53.862 8.090
53.876 2.886
53.890 5.566
53.903 4.127
53.917 6.243
53.931 5.100
53.945 9.345
53.958 7.130
53.972 2.985
53.986 7.497
54.000 4.200
54.014 4.646
54.027 6.670
54.041 4.832
54.055 7.981
54.069 4.180
54.082 4.530
54.096 4.441
54.110 4.644
54.124 8.432
54.137 7.356
54.151 9.815
54.165 11.081
54.179 3.565
54.192 6.070
54.206 3.227
54.220 4.131
54.234 4.463
54.247 3.487
54.261 3.495
54.275 5.559
54.289 3.113
54.302 7.799
54.316 3.787
54.330 12.273
54.344 4.842
54.357 6.031
54.371 2.913
54.385 9.746
54.399 8.407
54.412 6.530
54.426 2.783
54.440 6.327
54.454 3.290
54.467 9.171
54.481 7.680
54.495 6.052
54.509 0.282
54.522 3.588
54.536 7.391
54.550 8.584
54.564 8.345
54.577 2.190
54.591 6.500
54.605 8.123
54.619 2.030
54.632 5.786
54.646 6.425
54.660 5.113
54.674 1.577
54.687 5.050
54.701 5.044
54.715 5.449
54.729 4.500
54.742 4.772
54.756 5.687
54.770 6.783
54.784 5.079
54.797 4.837
54.811 5.977
54.825 1.389
54.839 6.848
54.852 5.757
54.866 5.846
54.880 7.941
54.894 1.303
54.907 1.252
54.921 6.369
54.935 5.726
54.949 6.128
54.962 4.685
54.976 7.248
54.990 7.856
55.004 6.832
55.018 5.133
55.031 0.924
55.045 7.474
55.059 8.502
55.073 7.185
55.086 3.711
55.100 7.247
55.114 7.670
55.128 9.258
55.141 3.710
55.155 5.187
55.169 7.402
55.183 5.829
55.196 3.151
55.210 6.637
55.224 7.009
55.238 5.889
55.251 6.186
55.265 5.095
55.279 9.048
55.293 3.628
55.306 4.339
55.320 5.700
55.334 7.674
55.348 2.260
55.361 2.684
55.375 1.025
55.389 5.738
55.403 3.114
55.416 4.783
55.430 7.163
55.444 4.193
55.458 6.179
55.471 4.968
55.485 7.179
55.499 6.728
55.513 4.068
55.526 5.257
55.540 8.017
55.554 6.533
55.568 2.454
55.581 7.126
55.595 3.161
55.609 8.846
55.623 7.959
55.636 6.285
55.650 5.981
55.664 5.145
55.678 7.164
55.691 4.772
55.705 6.151
55.719 7.599
55.733 4.331
55.746 4.205
55.760 2.886
55.774 3.180
55.788 1.438
55.801 7.263
55.815 9.719
55.829 8.843
55.843 1.891
55.856 7.244
55.870 8.830
55.884 4.549
55.898 5.818
55.911 1.012
55.925 6.191
55.939 3.159
55.953 6.034
55.966 2.022
55.980 6.812
55.994 7.907
56.008 3.788
56.022 2.981
56.035 0.658
56.049 4.960
56.063 4.240
56.077 2.030
56.090 6.593
56.104 4.534
56.118 3.107
56.132 4.293
56.145 7.994
56.159 6.925
56.173 5.254
56.187 6.959
56.200 2.903
56.214 5.619
56.228 5.879
56.242 4.471
56.255 6.531
56.269 3.760
56.283 6.697
56.297 6.791
56.310 0.000
56.324 8.242
56.338 0.000
56.352 4.125
56.365 7.861
56.379 4.802
56.393 2.183
56.407 3.030
56.420 7.858
56.434 1.141
56.448 8.087
56.462 5.389
56.475 2.797
56.489 4.183
56.503 3.192
56.517 7.480
56.530 7.174
56.544 1.589
56.558 4.583
56.572 3.535
56.585 8.445
56.599 2.423
56.613 9.150
56.627 5.419
56.640 2.847
56.654 3.949
56.668 3.664
56.682 2.585
56.695 5.703
56.709 2.688
56.723 0.518
56.737 4.617
56.750 1.374
56.764 3.766
56.778 3.407
56.792 3.491
56.805 10.031
56.819 5.601
56.833 6.030
56.847 1.424
56.860 3.979
56.874 5.957
56.888 3.132
56.902 7.532
56.915 2.723
56.929 4.808
56.943 4.124
56.957 5.832
56.970 3.997
56.984 4.837
56.998 4.915
57.012 3.779
57.026 6.555
57.039 5.991
57.053 5.245
57.067 4.465
57.081 7.258
57.094 4.906
57.108 4.743
57.122 5.678
57.136 9.302
57.149 2.384
57.163 7.189
57.177 1.122
57.191 5.927
57.204 9.018
57.218 6.543
57.232 5.817
57.246 4.150
57.259 5.496
57.273 4.850
57.287 3.633
57.301 4.761
57.314 5.872
57.328 3.671
57.342 3.581
57.356 2.318
57.369 6.304
57.383 6.655
57.397 5.939
57.411 7.608
57.424 5.609
57.438 6.300
57.452 6.098
57.466 5.196
57.479 4.194
57.493 10.445
57.507 4.371
57.521 3.883
57.534 6.386
57.548 5.970
57.562 2.196
57.576 7.951
57.589 5.178
57.603 2.861
57.617 8.097
57.631 6.814
57.644 2.507
57.658 9.434
57.672 6.885
57.686 5.360
57.699 9.004
57.713 5.744
57.727 5.316
57.741 3.874
57.754 6.702
57.768 6.461
57.782 5.408
57.796 3.574
57.809 5.668
57.823 5.212
57.837 2.332
57.851 2.016
57.864 6.654
57.878 0.000
57.892 5.832
57.906 4.274
57.919 8.341
57.933 4.237
57.947 6.861
57.961 4.454
57.974 5.616
57.988 7.034
58.002 4.301
58.016 7.623
58.030 3.089
58.043 6.021
58.057 7.451
58.071 6.851
58.085 9.712
58.098 3.607
58.112 2.203
58.126 3.079
58.140 6.846
58.153 6.475
58.167 5.572
58.181 2.781
58.195 7.084
58.208 2.547
58.222 7.974
58.236 11.841
58.250 6.167
58.263 6.659
58.277 4.208
58.291 1.206
58.305 3.955
58.318 2.837
58.332 2.030
58.346 9.247
58.360 5.944
58.373 6.187
58.387 4.617
58.401 4.926
58.415 7.515
58.428 5.244
58.442 6.525
58.456 4.868
58.470 4.534
58.483 2.108
58.497 0.807
58.511 4.715
58.525 5.438
58.538 2.379
58.552 5.228
58.566 5.428
58.580 0.394
58.593 3.219
58.607 6.230
58.621 6.183
58.635 2.673
58.648 5.660
58.662 7.626
58.676 7.067
58.690 5.079
58.703 4.229
58.717 3.860
58.731 6.358
58.745 5.736
58.758 6.724
58.772 5.589
58.786 7.153
58.800 5.502
58.813 7.073
58.827 7.268
58.841 3.451
58.855 1.164
58.868 8.797
58.882 5.865
58.896 1.375
58.910 3.653
58.923 7.035
58.937 4.639
58.951 4.109
58.965 8.465
58.978 2.888
58.992 3.454
59.006 5.752
59.020 6.159
59.034 6.399
59.047 7.343
59.061 5.719
59.075 6.380
59.089 4.674
59.102 5.406
59.116 5.507
59.130 5.751
59.144 7.020
59.157 6.524
59.171 5.359
59.185 3.414
59.199 5.410
59.212 5.191
59.226 5.694
59.240 10.279
59.254 4.059
59.267 6.213
59.281 7.684
59.295 5.472
59.309 10.573
59.322 4.386
59.336 5.984
59.350 3.426
59.364 4.443
59.377 5.810
59.391 7.170
59.405 5.968
59.419 8.108
59.432 5.023
59.446 4.482
59.460 11.396
59.474 6.134
59.487 3.596
59.501 3.653
59.515 3.086
59.529 7.365
59.542 4.401
59.556 5.520
59.570 5.085
59.584 6.894
59.597 3.299
59.611 2.777
59.625 5.736
59.639 6.593
59.652 5.981
59.666 3.379
59.680 6.764
59.694 3.526
59.707 4.032
59.721 3.069
59.735 8.181
59.749 6.659
59.762 6.594
59.776 8.055
59.790 11.620
59.804 1.320
59.817 3.530
59.831 3.808
59.845 3.272
59.859 2.755
59.872 4.526
59.886 2.436
59.900 5.969
59.914 5.323
59.927 6.300
59.941 6.360
59.955 6.576
59.969 4.351
59.982 10.032
59.996 5.734
60.010 0.957
60.024 2.915
60.038 1.233
60.051 5.236
60.065 4.918
60.079 4.128
60.093 9.774
60.106 6.443
60.120 6.845
60.134 3.070
60.148 2.914
60.161 5.273
60.175 5.582
60.189 0.959
60.203 4.776
60.216 5.218
60.230 4.695
60.244 3.331
60.258 3.954
60.271 4.779
60.285 5.388
60.299 6.558
60.313 7.641
60.326 4.508
60.340 4.139
60.354 6.173
60.368 6.567
60.381 4.186
60.395 6.974
60.409 7.404
60.423 8.114
60.436 9.222
60.450 3.197
60.464 5.201
60.478 5.195
60.491 4.945
60.505 3.688
60.519 1.783
60.533 5.377
60.546 3.415
60.560 5.360
60.574 3.354
60.588 2.658
60.601 5.695
60.615 5.504
60.629 6.479
60.643 10.137
60.656 5.789
60.670 6.262
60.684 2.702
60.698 2.224
60.711 8.759
60.725 3.050
60.739 2.775
60.753 5.063
60.766 4.946
60.780 3.095
60.794 4.455
60.808 7.949
60.821 3.312
60.835 1.973
60.849 7.293
60.863 6.267
60.876 3.731
60.890 1.540
60.904 3.447
60.918 5.018
60.931 7.796
60.945 2.780
60.959 4.947
60.973 6.677
60.986 0.000
61.000 7.492
61.014 2.443
61.028 5.892
61.042 5.697
61.055 7.604
61.069 6.388
61.083 0.000
61.097 3.344
61.110 5.446
61.124 4.686
61.138 6.217
61.152 6.926
61.165 6.514
61.179 4.639
61.193 0.921
61.207 4.088
61.220 6.073
61.234 2.640
61.248 6.561
61.262 7.191
61.275 5.411
61.289 0.000
61.303 2.209
61.317 9.415
61.330 3.874
61.344 0.599
61.358 7.930
61.372 5.147
61.385 7.632
61.399 5.745
61.413 6.158
61.427 5.940
61.440 6.701
61.454 10.299
61.468 7.322
61.482 1.511
61.495 6.127
61.509 7.708
61.523 7.847
61.537 4.136
61.550 7.760
61.564 7.219
61.578 10.964
61.592 3.396
61.605 3.948
61.619 4.406
61.633 3.985
61.647 3.074
61.660 0.000
61.674 4.110
61.688 5.940
61.702 3.975
61.715 9.506
61.729 5.127
61.743 8.037
61.757 5.691
61.770 6.977
61.784 5.730
61.798 8.211
61.812 5.220
61.825 6.222
61.839 5.925
61.853 4.434
61.867 6.012
61.880 10.178
61.894 4.472
61.908 6.043
61.922 7.951
61.935 7.683
61.949 5.112
61.963 0.000
61.977 6.261
61.990 0.028
62.004 8.430
62.018 5.468
62.032 7.358
62.046 3.026
62.059 1.544
62.073 5.673
62.087 5.002
62.101 3.958
62.114 5.270
62.128 11.379
62.142 6.976
62.156 7.465
62.169 6.996
62.183 8.443
62.197 4.640
62.211 0.392
62.224 4.642
62.238 6.920
62.252 2.861
62.266 4.668
62.279 3.493
62.293 8.489
62.307 6.774
62.321 6.551
62.334 6.482
62.348 4.981
62.362 5.515
62.376 2.365
62.389 0.084
62.403 5.405
62.417 5.800
62.431 7.816
62.444 8.640
62.458 8.636
62.472 2.786
62.486 4.257
62.499 6.152
62.513 10.824
62.527 8.428
62.541 7.606
62.554 4.172
62.568 3.043
62.582 6.851
62.596 2.547
62.609 4.510
62.623 4.791
62.637 8.680
62.651 4.243
62.664 0.000
62.678 6.199
62.692 3.457
62.706 5.146
62.719 4.850
62.733 4.424
62.747 6.847
62.761 1.555
62.774 3.868
62.788 6.603
62.802 3.645
62.816 1.379
62.829 6.565
62.843 7.600
62.857 4.939
62.871 0.575
62.884 6.648
62.898 1.259
62.912 5.742
62.926 3.017
62.939 2.396
62.953 4.031
62.967 4.619
62.981 3.569
62.994 6.376
63.008 4.019
63.022 7.267
63.036 5.674
63.050 3.444
63.063 3.060
63.077 1.279
63.091 5.693
63.105 4.223
63.118 0.000
63.132 3.809
63.146 2.977
63.160 8.617
63.173 1.149
63.187 1.744
63.201 7.554
63.215 8.116
63.228 3.328
63.242 3.585
63.256 6.427
63.270 0.000
63.283 0.784
63.297 4.383
63.311 8.552
63.325 4.029
63.338 5.250
63.352 7.602
63.366 9.818
63.380 3.705
63.393 4.980
63.407 9.167
63.421 1.550
63.435 7.357
63.448 2.697
63.462 5.249
63.476 4.462
63.490 2.832
63.503 2.774
63.517 5.642
63.531 7.280
63.545 4.716
63.558 5.171
63.572 6.312
63.586 2.797
63.600 6.694
63.613 6.875
63.627 10.938
63.641 4.151
63.655 3.964
63.668 6.758
63.682 6.872
63.696 3.787
63.710 4.087
63.723 6.237
63.737 3.119
63.751 4.068
63.765 5.207
63.778 7.271
63.792 3.625
63.806 0.805
63.820 0.636
63.833 2.132
63.847 2.009
63.861 4.647
63.875 2.291
63.888 3.397
63.902 3.234
63.916 3.994
63.930 8.008
63.943 6.503
63.957 5.032
63.971 3.945
63.985 4.008
63.998 5.740
64.012 6.324
64.026 2.926
64.040 5.075
64.054 0.365
64.067 5.473
64.081 6.726
64.095 4.352
64.109 9.127
64.122 2.982
64.136 5.484
64.150 4.906
64.164 4.759
64.177 4.727
64.191 5.230
64.205 6.917
64.219 8.123
64.232 4.980
64.246 6.841
64.260 3.386
64.274 6.728
64.287 3.247
64.301 7.466
64.315 10.017
64.329 4.703
64.342 0.000
64.356 3.732
64.370 7.785
64.384 6.239
64.397 5.546
64.411 7.276
64.425 6.081
64.439 7.751
64.452 7.071
64.466 8.442
64.480 5.793
64.494 7.037
64.507 4.275
64.521 3.605
64.535 8.861
64.549 5.466
64.562 6.806
64.576 5.254
64.590 3.636
64.604 4.996
64.617 8.242
64.631 6.235
64.645 1.072
64.659 4.479
64.672 9.028
64.686 4.482
64.700 0.867
64.714 9.279
64.727 6.521
64.741 4.807
64.755 4.120
64.769 7.431
64.782 3.731
64.796 7.580
64.810 6.199
64.824 5.521
64.837 5.295
64.851 4.564
64.865 7.344
64.879 2.991
64.892 1.268
64.906 6.361
64.920 6.398
64.934 6.054
64.947 5.888
64.961 4.229
64.975 6.752
64.989 4.855
65.003 3.849
65.016 4.247
65.030 9.559
65.044 1.005
65.058 6.094
65.071 1.131
65.085 4.709
65.099 3.967
65.113 0.206
65.126 5.840
65.140 4.088
65.154 0.172
65.168 6.865
65.181 8.221
65.195 8.346
65.209 5.769
65.223 5.056
65.236 7.975
65.250 8.782
65.264 7.531
65.278 2.805
65.291 5.407
65.305 5.949
65.319 0.826
65.333 6.016
65.346 10.124
65.360 6.404
65.374 8.302
65.388 5.362
65.401 4.779
65.415 5.813
65.429 3.086
65.443 2.749
65.456 7.828
65.470 8.069
65.484 2.686
65.498 7.147
65.511 4.744
65.525 5.716
65.539 5.989
65.553 7.206
65.566 5.129
65.580 8.152
65.594 5.644
65.608 6.361
65.621 3.041
65.635 9.855
65.649 6.008
65.663 6.562
65.676 1.275
65.690 3.063
65.704 7.756
65.718 5.590
65.731 0.577
65.745 7.300
65.759 3.696
65.773 8.149
65.786 4.734
65.800 5.400
65.814 7.619
65.828 2.889
65.841 2.671
65.855 4.485
65.869 6.816
65.883 1.900
65.896 1.132
65.910 6.807
65.924 3.557
65.938 4.037
65.951 0.701
65.965 3.383
65.979 4.912
65.993 7.048
66.007 3.172
66.020 8.703
66.034 3.368
66.048 3.371
66.062 8.428
66.075 5.408
66.089 3.669
66.103 4.572
66.117 8.007
66.130 8.264
66.144 3.064
66.158 4.828
66.172 5.129
66.185 2.677
66.199 4.796
66.213 4.935
66.227 7.519
66.240 7.672
66.254 4.172
66.268 4.434
66.282 6.434
66.295 3.588
66.309 6.261
66.323 4.720
66.337 2.712
66.350 2.740
66.364 8.215
66.378 4.562
66.392 8.654
66.405 3.748
66.419 5.581
66.433 10.367
66.447 2.509
66.460 0.594
66.474 7.847
66.488 3.033
66.502 4.869
66.515 3.581
66.529 5.526
66.543 2.750
66.557 4.505
66.570 5.939
66.584 2.617
66.598 3.319
66.612 4.122
66.625 1.659
66.639 3.950
66.653 5.183
66.667 4.002
66.680 4.294
66.694 4.866
66.708 3.418
66.722 6.485
66.735 8.181
66.749 3.853
66.763 6.015
66.777 4.364
66.790 5.742
66.804 8.475
66.818 6.067
66.832 0.869
66.845 5.942
66.859 7.716
66.873 4.403
66.887 7.175
66.900 3.335
66.914 1.523
66.928 5.228
66.942 0.906
66.955 4.360
66.969 7.837
66.983 0.556
66.997 1.991
67.011 2.554
67.024 4.760
67.038 4.071
67.052 8.091
67.066 7.077
67.079 6.032
67.093 5.235
67.107 5.799
67.121 2.940
67.134 6.855
67.148 2.370
67.162 6.805
67.176 7.603
67.189 5.382
67.203 4.500
67.217 5.813
67.231 0.000
67.244 5.589
67.258 4.642
67.272 4.785
67.286 6.509
67.299 4.729
67.313 2.302
67.327 4.577
67.341 5.053
67.354 5.160
67.368 5.267
67.382 7.265
67.396 2.424
67.409 5.298
67.423 7.835
67.437 0.947
67.451 5.306
67.464 3.564
67.478 4.052
67.492 2.836
67.506 4.510
67.519 9.089
67.533 2.016
67.547 2.232
67.561 1.930
67.574 8.829
67.588 3.842
67.602 4.836
67.616 3.977
67.629 2.743
67.643 4.359
67.657 10.493
67.671 8.064
67.684 2.951
67.698 6.368
67.712 2.999
67.726 0.847
67.739 7.215
67.753 7.535
67.767 7.275
67.781 3.822
67.794 4.512
67.808 6.599
67.822 5.783
67.836 3.995
67.849 1.204
67.863 5.151
67.877 7.349
67.891 2.163
67.904 6.345
67.918 5.646
67.932 6.599
67.946 6.876
67.959 3.308
67.973 1.207
67.987 3.675
68.001 6.915
68.015 3.655
68.028 3.309
68.042 0.741
68.056 8.881
68.070 6.770
68.083 6.642
68.097 7.093
68.111 6.202
68.125 4.332
68.138 4.515
68.152 3.914
68.166 10.889
68.180 6.154
68.193 3.831
68.207 5.948
68.221 2.585
68.235 8.314
68.248 3.382
68.262 6.028
68.276 7.315
68.290 5.763
68.303 5.102
68.317 4.911
68.331 4.758
68.345 3.573
68.358 3.863
68.372 8.256
68.386 4.639
68.400 3.097
68.413 3.710
68.427 7.392
68.441 6.425
68.455 6.162
68.468 4.299
68.482 6.192
68.496 3.420
68.510 4.294
68.523 7.094
68.537 6.877
68.551 2.649
68.565 2.937
68.578 5.133
68.592 8.817
68.606 0.523
68.620 5.519
68.633 1.751
68.647 3.441
68.661 4.055
68.675 3.927
68.688 3.669
68.702 4.902
68.716 3.666
68.730 1.554
68.743 6.661
68.757 6.600
68.771 6.805
68.785 1.376
68.798 5.566
68.812 6.425
68.826 2.536
68.840 4.906
68.853 4.620
68.867 9.081
68.881 9.268
68.895 1.094
68.908 10.565
68.922 2.801
68.936 7.119
68.950 7.096
68.963 2.617
68.977 6.009
68.991 4.640
69.005 6.148
69.019 5.411
69.032 7.610
69.046 5.057
69.060 4.503
69.074 7.382
69.087 6.208
69.101 6.552
69.115 3.372
69.129 2.505
69.142 3.593
69.156 3.472
69.170 6.677
69.184 7.109
69.197 4.533
69.211 8.145
69.225 8.003
69.239 5.441
69.252 3.015
69.266 8.475
69.280 4.748
69.294 5.174
69.307 4.114
69.321 2.861
69.335 1.543
69.349 6.329
69.362 3.104
69.376 11.856
69.390 2.414
69.404 2.024
69.417 6.050
69.431 8.372
69.445 5.036
69.459 6.192
69.472 0.690
69.486 3.346
69.500 2.444
69.514 0.574
69.527 5.156
69.541 0.000
69.555 1.879
69.569 3.667
69.582 2.997
69.596 5.794
69.610 5.587
69.624 6.927
69.637 6.605
69.651 7.490
69.665 4.888
69.679 5.583
69.692 6.058
69.706 5.215
69.720 3.989
69.734 4.136
69.747 3.032
69.761 5.854
69.775 4.680
69.789 3.384
69.802 3.387
69.816 2.138
69.830 7.125
69.844 5.075
69.857 2.931
69.871 6.738
69.885 3.620
69.899 1.694
69.912 7.223
69.926 3.675
69.940 3.967
69.954 4.992
69.967 7.501
69.981 4.945
69.995 2.169
70.009 6.139
70.023 3.796
70.036 9.201
70.050 4.899
70.064 0.000
70.078 5.716
70.091 9.332
70.105 8.492
70.119 9.074
70.133 2.582
70.146 6.982
70.160 3.261
70.174 5.416
70.188 2.007
70.201 3.439
70.215 3.367
70.229 6.954
70.243 6.732
70.256 5.539
70.270 1.834
70.284 4.200
70.298 3.211
70.311 6.892
70.325 7.595
70.339 7.318
70.353 3.193
70.366 0.000
70.380 0.890
70.394 8.152
70.408 4.001
70.421 3.206
70.435 8.658
70.449 7.799
70.463 4.974
70.476 4.250
70.490 4.618
70.504 5.437
70.518 8.565
70.531 5.884
70.545 6.576
70.559 7.586
70.573 2.260
70.586 6.644
70.600 4.254
70.614 0.000
70.628 0.080
70.641 2.609
70.655 6.138
70.669 5.189
70.683 5.350
70.696 9.374
70.710 2.042
70.724 4.870
70.738 5.627
70.751 3.258
70.765 5.000
70.779 1.293
70.793 8.149
70.806 3.386
70.820 9.566
70.834 4.867
70.848 7.283
70.861 4.821
70.875 4.874
70.889 3.615
70.903 5.217
70.916 5.671
70.930 3.162
70.944 4.665
70.958 3.561
70.971 10.189
70.985 4.749
70.999 8.473
71.013 4.510
71.027 5.547
71.040 1.948
71.054 3.941
71.068 5.440
71.082 8.574
71.095 5.469
71.109 8.116
71.123 6.425
71.137 8.674
71.150 4.834
71.164 10.414
71.178 3.866
71.192 3.228
71.205 2.219
71.219 10.285
71.233 6.844
71.247 4.218
71.260 7.826
71.274 6.549
71.288 9.462
71.302 1.461
71.315 4.383
71.329 3.936
71.343 0.496
71.357 7.408
71.370 4.379
71.384 6.681
71.398 10.373
71.412 4.196
71.425 4.043
71.439 5.275
71.453 7.255
71.467 3.718
71.480 3.573
71.494 7.420
71.508 5.877
71.522 0.360
71.535 2.228
71.549 8.440
71.563 5.939
71.577 3.290
71.590 4.640
71.604 5.061
71.618 6.709
71.632 1.942
71.645 3.123
71.659 5.662
71.673 4.816
71.687 6.348
71.700 2.248
71.714 5.864
71.728 7.540
71.742 6.165
71.755 5.376
71.769 4.844
71.783 3.164
71.797 4.904
71.810 7.940
71.824 4.803
71.838 3.051
71.852 3.959
71.865 5.541
71.879 4.236
71.893 6.196
71.907 6.285
71.920 7.122
71.934 8.343
71.948 7.372
71.962 2.980
71.975 3.054
71.989 4.943
72.003 4.092
72.017 2.531
72.031 4.121
72.044 4.051
72.058 3.605
72.072 4.420
72.086 7.828
72.099 5.602
72.113 10.782
72.127 5.546
72.141 4.501
72.154 5.176
72.168 5.756
72.182 6.168
72.196 9.911
72.209 3.261
72.223 7.148
72.237 5.670
72.251 1.624
72.264 6.963
72.278 8.100
72.292 3.266
72.306 5.204
72.319 1.301
72.333 2.369
72.347 7.629
72.361 4.186
72.374 2.730
72.388 5.784
72.402 4.078
72.416 4.203
72.429 6.966
72.443 2.643
72.457 3.234
72.471 5.654
72.484 7.519
72.498 8.139
72.512 3.812
72.526 7.469
72.539 3.557
72.553 9.510
72.567 2.777
72.581 8.394
72.594 3.882
72.608 9.972
72.622 6.742
72.636 3.091
72.649 4.226
72.663 7.204
72.677 7.833
72.691 5.284
72.704 5.558
72.718 7.194
72.732 5.779
72.746 2.544
72.759 3.650
72.773 6.049
72.787 8.294
72.801 9.219
72.814 7.327
72.828 6.219
72.842 7.284
72.856 4.074
72.869 5.258
72.883 3.744
72.897 2.792
72.911 6.411
72.924 6.090
72.938 7.250
72.952 6.944
72.966 6.270
72.979 7.003
72.993 5.656
73.007 6.712
73.021 4.137
73.035 6.653
73.048 7.353
73.062 4.327
73.076 5.991
73.090 4.475
73.103 4.719
73.117 3.379
73.131 8.848
73.145 8.417
73.158 7.240
73.172 10.534
73.186 5.638
73.200 13.002
73.213 5.608
73.227 6.737
73.241 5.281
73.255 7.067
73.268 8.155
73.282 6.026
73.296 10.368
73.310 6.902
73.323 7.011
73.337 4.364
73.351 7.428
73.365 6.211
73.378 5.174
73.392 4.836
73.406 12.736
73.420 6.099
73.433 3.431
73.447 5.212
73.461 6.739
73.475 8.157
73.488 8.234
73.502 8.573
73.516 5.627
73.530 7.937
73.543 5.235
73.557 5.891
73.571 5.287
73.585 4.749
73.598 9.961
73.612 9.191
73.626 9.936
73.640 7.895
73.653 9.672
73.667 3.995
73.681 10.079
73.695 8.630
73.708 9.773
73.722 9.335
73.736 6.353
73.750 5.327
73.763 7.263
73.777 10.325
73.791 10.772
73.805 6.256
73.818 7.318
73.832 8.096
73.846 9.133
73.860 7.060
73.873 7.152
73.887 8.762
73.901 11.088
73.915 8.479
73.928 11.198
73.942 14.187
73.956 9.147
73.970 12.003
73.983 15.194
73.997 12.324
74.011 12.419
74.025 16.861
74.039 14.042
74.052 17.830
74.066 16.923
74.080 15.863
74.094 18.513
74.107 19.025
74.121 21.616
74.135 19.190
74.149 21.873
74.162 23.224
74.176 26.863
74.190 25.212
74.204 32.643
74.217 34.778
74.231 34.852
74.245 45.637
74.259 54.067
74.272 58.583
74.286 68.262
74.300 75.448
74.314 83.349
74.327 96.507
74.341 116.545
74.355 131.458
74.369 148.951
74.382 170.193
74.396 191.679
74.410 206.994
74.424 228.721
74.437 251.272
74.451 261.303
74.465 278.657
74.479 284.762
74.492 291.992
74.506 293.504
74.520 288.304
74.534 279.942
74.547 262.697
74.561 252.225
74.575 229.852
74.589 213.053
74.602 193.054
74.616 173.590
74.630 153.858
74.644 132.806
74.657 114.648
74.671 104.273
74.685 88.949
74.699 79.080
74.712 65.945
74.726 53.974
74.740 51.909
74.754 42.644
74.767 39.125
74.781 32.646
74.795 34.401
74.809 25.819
74.822 24.711
74.836 23.790
74.850 19.442
74.864 21.318
74.877 23.069
74.891 17.270
74.905 18.399
74.919 10.450
74.932 15.918
74.946 14.655
74.960 12.922
74.974 16.716
74.987 13.020
75.001 12.905
75.015 12.030
75.029 8.133
75.043 9.557
75.056 13.985
75.070 6.673
75.084 9.437
75.098 9.994
75.111 14.614
75.125 12.149
75.139 8.899
75.153 12.922
75.166 8.059
75.180 11.851
75.194 6.276
75.208 11.642
75.221 8.110
75.235 6.537
75.249 8.239
75.263 9.226
75.276 7.335
75.290 9.597
75.304 6.888
75.318 9.515
75.331 9.001
75.345 7.751
75.359 6.786
75.373 8.042
75.386 8.860
75.400 12.216
75.414 9.577
75.428 9.582
75.441 14.317
75.455 8.386
75.469 8.245
75.483 8.678
75.496 4.712
75.510 5.937
75.524 5.736
75.538 8.307
75.551 6.381
75.565 7.040
75.579 9.151
75.593 8.591
75.606 6.209
75.620 5.006
75.634 9.074
75.648 8.209
75.661 2.747
75.675 5.652
75.689 6.704
75.703 8.064
75.716 8.328
75.730 6.867
75.744 7.520
75.758 6.300
75.771 4.588
75.785 5.498
75.799 6.106
75.813 5.956
75.826 1.713
75.840 5.075
75.854 6.082
75.868 5.288
75.881 5.342
75.895 6.992
75.909 3.400
75.923 2.127
75.936 5.020
75.950 7.532
75.964 9.614
75.978 7.532
75.991 2.387
76.005 5.183
76.019 6.278
76.033 6.080
76.047 6.886
76.060 3.552
76.074 5.772
76.088 6.565
76.102 7.472
76.115 3.741
76.129 4.775
76.143 0.000
76.157 4.117
76.170 4.324
76.184 3.182
76.198 5.868
76.212 5.351
76.225 0.320
76.239 5.944
76.253 3.326
76.267 6.535
76.280 2.498
76.294 5.474
76.308 4.750
76.322 6.074
76.335 5.657
76.349 4.782
76.363 1.854
76.377 1.978
76.390 4.003
76.404 5.304
76.418 3.929
76.432 6.729
76.445 4.660
76.459 3.089
76.473 4.645
76.487 5.785
76.500 6.002
76.514 9.532
76.528 3.722
76.542 5.071
76.555 6.201
76.569 5.170
76.583 4.075
76.597 1.680
76.610 4.038
76.624 2.749
76.638 1.255
76.652 3.369
76.665 2.790
76.679 6.498
76.693 6.531
76.707 3.097
76.720 4.557
76.734 0.911
76.748 4.012
76.762 6.041
76.775 7.005
76.789 3.497
76.803 7.511
76.817 1.658
76.830 2.263
76.844 6.716
76.858 8.900
76.872 6.213
76.885 4.992
76.899 0.080
76.913 0.468
76.927 5.365
76.940 4.250
76.954 2.542
76.968 5.206
76.982 5.314
76.995 7.199
77.009 5.354
77.023 7.837
77.037 5.053
77.051 4.768
77.064 7.451
77.078 2.795
77.092 11.429
77.106 5.870
77.119 5.879
77.133 6.204
77.147 9.279
77.161 6.806
77.174 1.341
77.188 8.190
77.202 4.214
77.216 5.231
77.229 2.070
77.243 6.178
77.257 3.493
77.271 5.202
77.284 4.323
77.298 9.352
77.312 9.479
77.326 5.067
77.339 5.104
77.353 4.105
77.367 7.471
77.381 4.200
77.394 3.987
77.408 7.173
77.422 3.715
77.436 4.852
77.449 1.334
77.463 6.537
77.477 9.351
77.491 6.571
77.504 8.255
77.518 2.996
77.532 5.459
77.546 2.770
77.559 4.397
77.573 6.672
77.587 5.143
77.601 1.691
77.614 1.911
77.628 1.758
77.642 6.021
77.656 9.600
77.669 8.000
77.683 0.577
77.697 8.130
77.711 7.024
77.724 1.369
77.738 4.196
77.752 7.380
77.766 6.136
77.779 1.899
77.793 6.270
77.807 0.009
77.821 4.367
77.834 7.465
77.848 4.913
77.862 3.733
77.876 6.893
77.889 7.086
77.903 7.848
77.917 6.853
77.931 7.323
77.944 6.528
77.958 5.462
77.972 5.059
77.986 4.313
77.999 2.091
78.013 2.675
78.027 4.206
78.041 5.397
78.055 8.127
78.068 4.749
78.082 7.128
78.096 7.299
78.110 4.312
78.123 6.192
78.137 4.282
78.151 7.846
78.165 6.282
78.178 2.121
78.192 5.198
78.206 8.583
78.220 4.415
78.233 5.846
78.247 6.068
78.261 2.463
78.275 5.985
78.288 1.646
78.302 3.395
78.316 7.268
78.330 5.630
78.343 4.122
78.357 5.831
78.371 4.676
78.385 4.841
78.398 6.307
78.412 3.153
78.426 4.900
78.440 4.096
78.453 1.195
78.467 2.708
78.481 8.375
78.495 5.679
78.508 1.787
78.522 1.292
78.536 4.544
78.550 8.354
78.563 4.372
78.577 7.773
78.591 5.596
78.605 5.867
78.618 1.750
78.632 6.927
78.646 4.028
78.660 6.755
78.673 2.934
78.687 5.191
78.701 5.588
78.715 4.435
78.728 5.706
78.742 4.177
78.756 3.304
78.770 8.438
78.783 7.170
78.797 3.047
78.811 6.073
78.825 3.086
78.838 2.079
78.852 7.130
78.866 0.894
78.880 6.885
78.893 4.198
78.907 4.290
78.921 5.705
78.935 6.094
78.948 2.888
78.962 6.403
78.976 5.026
78.990 1.906
79.004 4.379
79.017 7.911
79.031 8.583
79.045 6.398
79.059 2.052
79.072 5.880
79.086 6.699
79.100 6.413
79.114 6.548
79.127 5.586
79.141 4.593
79.155 3.372
79.169 0.434
79.182 5.530
79.196 5.179
79.210 6.024
79.224 1.707
79.237 6.222
79.251 9.432
79.265 4.930
79.279 4.610
79.292 5.454
79.306 9.378
79.320 2.417
79.334 5.211
79.347 2.926
79.361 3.501
79.375 4.633
79.389 7.814
79.402 8.846
79.416 5.765
79.430 3.886
79.444 10.420
79.457 3.768
79.471 3.441
79.485 0.698
79.499 7.920
79.512 6.945
79.526 10.245
79.540 1.573
79.554 8.059
79.567 4.897
79.581 6.572
79.595 0.983
79.609 8.079
79.622 6.526
79.636 4.645
79.650 6.203
79.664 2.989
79.677 3.412
79.691 3.676
79.705 0.511
79.719 6.693
79.732 7.444
79.746 3.132
79.760 5.522
79.774 4.123
79.787 5.475
79.801 3.298
79.815 2.714
79.829 7.122
79.842 4.580
79.856 9.330
79.870 4.830
79.884 2.615
79.897 7.518
79.911 6.159
79.925 6.378
79.939 7.433
79.952 3.234
79.966 4.431
79.980 4.330
79.994 1.780
80.008 4.119
80.021 7.762
80.035 5.259
80.049 1.652
80.063 1.174
80.076 8.508
80.090 4.510
80.104 3.241
80.118 4.091
80.131 1.350
80.145 7.955
80.159 3.819
80.173 7.828
80.186 4.830
80.200 7.968
80.214 5.297
80.228 6.655
80.241 6.349
80.255 6.130
80.269 5.503
80.283 4.179
80.296 9.072
80.310 2.643
80.324 4.718
80.338 4.742
80.351 5.624
80.365 3.729
80.379 5.423
80.393 4.322
80.406 1.103
80.420 4.727
80.434 2.198
80.448 0.754
80.461 5.016
80.475 5.815
80.489 5.903
80.503 5.995
80.516 0.301
80.530 1.602
80.544 9.196
80.558 2.316
80.571 6.092
80.585 3.136
80.599 4.882
80.613 3.257
80.626 5.978
80.640 5.010
80.654 3.678
80.668 2.306
80.681 5.308
80.695 1.935
80.709 5.671
80.723 10.679
80.736 7.771
80.750 6.332
80.764 4.501
80.778 0.280
80.791 1.683
80.805 7.616
80.819 2.895
80.833 3.101
80.846 4.316
80.860 2.274
80.874 1.899
80.888 4.577
80.901 2.661
80.915 3.004
80.929 2.912
80.943 5.881
80.956 4.162
80.970 4.283
80.984 6.049
80.998 4.366
81.012 4.055
81.025 5.760
81.039 6.210
81.053 4.353
81.067 4.871
81.080 2.907
81.094 2.727
81.108 6.439
81.122 5.700
81.135 5.723
81.149 5.326
81.163 4.791
81.177 6.271
81.190 6.815
81.204 6.760
81.218 4.455
81.232 7.843
81.245 5.204
81.259 6.124
81.273 5.325
81.287 5.245
81.300 3.007
81.314 6.279
81.328 11.162
81.342 3.828
81.355 4.843
81.369 3.665
81.383 3.569
81.397 8.198
81.410 3.147
81.424 3.600
81.438 1.064
81.452 2.954
81.465 0.788
81.479 6.118
81.493 11.055
81.507 3.843
81.520 0.882
81.534 6.727
81.548 3.022
81.562 7.636
81.575 4.034
81.589 3.237
81.603 4.271
81.617 6.402
81.630 4.157
81.644 3.544
81.658 4.222
81.672 1.778
81.685 5.579
81.699 0.605
81.713 3.662
81.727 6.403
81.740 5.363
81.754 6.017
81.768 4.525
81.782 7.337
81.795 6.778
81.809 5.688
81.823 6.784
81.837 6.381
81.850 3.670
81.864 1.610
81.878 5.628
81.892 5.914
81.905 7.154
81.919 2.537
81.933 2.605
81.947 5.717
81.960 4.507
81.974 0.374
81.988 5.523
82.002 0.449
82.016 2.515
82.029 7.746
82.043 8.824
82.057 1.899
82.071 3.917
82.084 4.764
82.098 8.724
82.112 3.544
82.126 3.580
82.139 8.193
82.153 3.812
82.167 6.310
82.181 1.301
82.194 4.275
82.208 0.885
82.222 2.261
82.236 6.576
82.249 4.550
82.263 3.937
82.277 2.958
82.291 4.161
82.304 5.349
82.318 6.902
82.332 0.000
82.346 2.768
82.359 5.025
82.373 4.437
82.387 5.581
82.401 5.271
82.414 3.967
82.428 3.461
82.442 4.102
82.456 7.277
82.469 2.993
82.483 4.517
82.497 5.078
82.511 8.214
82.524 3.976
82.538 6.843
82.552 7.465
82.566 4.514
82.579 4.179
82.593 3.909
82.607 4.076
82.621 6.604
82.634 5.184
82.648 5.194
82.662 2.095
82.676 2.454
82.689 9.539
82.703 4.252
82.717 2.892
82.731 7.916
82.744 5.298
82.758 5.973
82.772 4.342
82.786 3.930
82.799 4.269
82.813 1.506
82.827 4.455
82.841 5.329
82.854 8.869
82.868 4.850
82.882 0.000
82.896 4.440
82.909 10.893
82.923 6.627
82.937 2.807
82.951 6.000
82.964 2.963
82.978 1.570
82.992 3.859
83.006 4.861
83.020 0.389
83.033 2.035
83.047 4.676
83.061 3.722
83.075 5.551
83.088 1.885
83.102 6.278
83.116 1.955
83.130 8.392
83.143 0.743
83.157 2.162
83.171 5.601
83.185 8.441
83.198 5.368
83.212 5.932
83.226 4.690
83.240 2.312
83.253 3.533
83.267 1.889
83.281 1.737
83.295 5.564
83.308 2.091
83.322 5.376
83.336 1.683
83.350 5.323
83.363 3.535
83.377 7.851
83.391 5.385
83.405 7.462
83.418 2.926
83.432 4.775
83.446 2.412
83.460 3.705
83.473 4.050
83.487 2.993
83.501 1.878
83.515 1.427
83.528 0.000
83.542 2.240
83.556 6.075
83.570 1.005
83.583 1.529
83.597 8.724
83.611 3.195
83.625 5.376
83.638 6.107
83.652 6.153
83.666 1.177
83.680 4.118
83.693 0.958
83.707 10.215
83.721 1.011
83.735 2.257
83.748 2.273
83.762 1.234
83.776 7.723
83.790 10.160
83.803 3.559
83.817 1.635
83.831 0.000
83.845 4.086
83.858 3.921
83.872 3.158
83.886 5.146
83.900 5.542
83.913 5.377
83.927 3.921
83.941 2.132
83.955 6.157
83.968 4.669
83.982 6.664
83.996 6.440
84.010 1.402
84.024 1.374
84.037 2.919
84.051 2.234
84.065 6.360
84.079 5.440
84.092 7.143
84.106 5.542
84.120 5.114
84.134 7.371
84.147 5.709
84.161 4.794
84.175 8.010
84.189 4.901
84.202 3.945
84.216 2.730
84.230 6.239
84.244 7.455
84.257 4.522
84.271 7.616
84.285 0.151
84.299 4.511
84.312 4.546
84.326 2.981
84.340 10.066
84.354 4.486
84.367 3.708
84.381 4.695
84.395 0.075
84.409 2.905
84.422 6.875
84.436 3.203
84.450 2.748
84.464 7.618
84.477 7.688
84.491 5.813
84.505 3.599
84.519 4.090
84.532 2.803
84.546 2.369
84.560 2.256
84.574 3.227
84.587 2.278
84.601 1.073
84.615 5.134
84.629 5.168
84.642 8.507
84.656 3.111
84.670 5.308
84.684 5.346
84.697 4.055
84.711 6.328
84.725 6.399
84.739 5.378
84.752 4.050
84.766 3.818
84.780 1.517
84.794 2.797
84.807 3.215
84.821 2.072
84.835 5.634
84.849 7.357
84.862 2.563
84.876 5.277
84.890 2.276
84.904 3.937
84.917 3.059
84.931 6.002
84.945 3.085
84.959 6.935
84.972 4.071
84.986 3.151
85.000 1.776
